-0.050778|-0.050778|-0.040778|-0.035778|-0.045778|-0.055778|-0.065778|-0.045778|-0.050778|-0.040778|-0.025778|-0.055778|-0.070778|-0.050778|-0.035778|-0.020778|-0.025778|-0.030778|-0.035778|-0.065778|-0.030778|-0.035778|-0.035778|-0.035778|-0.035778|-0.035778|-0.025778|-0.025778|-0.030778|-0.030778|-0.025778|-0.010778|0.004222|0.004222|-0.005778|-0.010778|-0.010778|-0.00077803|0.009222|0.044222|0.064222|0.069222|0.069222|0.10922|0.13922|0.14422|0.13422|0.099222|0.074222|0.069222|0.069222|0.079222|0.074222|0.069222|0.049222|0.029222|0.034222|0.034222|0.044222|0.029222|0.014222|0.009222|-0.015778|-0.015778|-0.040778|-0.035778|-0.040778|-0.030778|-0.020778|-0.020778|-0.030778|-0.035778|-0.070778|-0.065778|-0.065778|-0.050778|-0.035778|-0.040778|-0.055778|-0.065778|-0.040778|-0.020778|-0.025778|-0.040778|-0.075778|-0.070778|-0.075778|-0.070778|-0.075778|-0.085778|0.014222|0.19922|0.41922|0.66922|0.97422|1.2292|1.3042|1.1742|0.88922|0.62922|0.39922|0.22922|0.14422|0.099222|0.049222|0.044222|0.034222|0.014222|-0.015778|-0.030778|-0.055778|-0.085778|-0.095778|-0.12078|-0.11078|-0.10078|-0.090778|-0.080778|-0.090778|-0.11078|-0.13078|-0.13578|-0.12078|-0.10578|-0.12578|-0.11578|-0.12578|-0.10578|-0.11078|-0.10578|-0.11078|-0.13078|-0.14078|-0.13578|-0.11078|-0.10578|-0.11578|-0.12078|-0.12078|-0.11078|-0.10078|-0.10078|-0.10078|-0.11578|-0.12078|-0.12078|-0.11578|-0.10578|-0.10078|-0.11578|-0.13078|-0.12078|-0.10578|-0.090778|-0.085778|-0.10078|-0.11578|-0.10078|-0.085778|-0.075778|-0.080778|-0.080778|-0.090778|-0.095778|-0.070778|-0.055778|-0.055778|-0.050778|-0.060778|-0.050778|-0.035778|-0.030778|-0.045778|-0.030778|-0.045778|-0.030778|-0.015778|0.009222|0.029222|0.044222|0.029222|0.039222|0.049222|0.064222|0.074222|0.074222|0.069222|0.079222|0.099222|0.11422|0.13422|0.14422|0.13922|0.14422|0.16922|0.16422|0.15922|0.16922|0.15422|0.16422|0.16422|0.15922|0.16922|0.15422|0.15922|0.15922|0.15422|0.14422|0.12422|0.11422|0.094222|0.089222|0.094222|0.10422|0.089222|0.059222|0.049222|0.044222|0.049222|0.049222|0.044222|0.014222|0.009222|0.004222|0.009222|0.009222|0.004222|-0.015778|-0.025778|-0.025778|-0.020778|-0.010778|-0.010778|-0.025778|-0.035778|-0.020778|-0.015778|-0.010778|-0.030778|-0.030778|-0.035778|-0.020778|-0.020778|-0.010778|-0.025778|-0.020778|-0.015778|-0.020778|-0.015778|-0.025778|-0.010778|-0.010778|-0.010778|-0.005778|-0.00077803|0.004222|0.009222|0.009222|-0.00077803|-0.005778|0.009222|0.004222|0.014222|-0.00077803|-0.010778|-0.010778|0.009222|0.014222|0.019222|0.019222|0.014222|0.019222|0.014222|0.024222|0.024222|0.019222|-0.00077803|-0.00077803|0.009222|0.024222|0.019222|0.004222|-0.00077803|0.004222|0.019222|0.019222|0.019222|0.019222|0.019222|0.014222|0.014222|0.029222|0.019222|0.004222|-0.005778|0.004222|0.014222|0.014222|0.019222|0.019222|
0.019222|0.014222|0.009222|-0.00077803|0.004222|0.019222|0.019222|0.009222|0.014222|0.009222|0.009222|0.009222|0.024222|0.019222|0.009222|-0.00077803|0.004222|0.004222|0.024222|0.014222|0.009222|0.004222|0.004222|0.014222|0.029222|0.059222|0.049222|0.039222|0.044222|0.064222|0.074222|0.069222|0.064222|0.059222|0.049222|0.054222|0.064222|0.094222|0.10422|0.099222|0.13422|0.16922|0.17922|0.18422|0.15922|0.13422|0.12922|0.13422|0.12422|0.10922|0.099222|0.084222|0.094222|0.094222|0.10422|0.089222|0.074222|0.059222|0.064222|0.059222|0.044222|0.044222|0.024222|-0.005778|-0.00077803|0.004222|0.019222|0.009222|-0.010778|-0.020778|-0.010778|-0.005778|0.009222|-0.00077803|-0.010778|-0.020778|-0.035778|-0.020778|-0.010778|-0.015778|-0.020778|-0.020778|-0.010778|-0.00077803|-0.005778|-0.025778|-0.055778|-0.085778|-0.080778|-0.005778|0.13422|0.34922|0.57922|0.82422|1.1242|1.3692|1.4492|1.3242|1.0492|0.76422|0.50422|0.29922|0.20422|0.16922|0.099222|0.049222|0.039222|0.049222|0.044222|0.024222|-0.015778|-0.060778|-0.065778|-0.080778|-0.065778|-0.080778|-0.090778|-0.10578|-0.090778|-0.085778|-0.085778|-0.090778|-0.10078|-0.10578|-0.11078|-0.11578|-0.10578|-0.10578|-0.11578|-0.11578|-0.10578|-0.10078|-0.10078|-0.10078|-0.11078|-0.12578|-0.11578|-0.10578|-0.10078|-0.11078|-0.11078|-0.12078|-0.12078|-0.10578|-0.095778|-0.095778|-0.11078|-0.11578|-0.12578|-0.10578|-0.10078|-0.090778|-0.10078|-0.11078|-0.11078|-0.10578|-0.095778|-0.10078|-0.10578|-0.11078|-0.10078|-0.090778|-0.080778|-0.080778|-0.085778|-0.085778|-0.080778|-0.065778|-0.055778|-0.060778|-0.060778|-0.075778|-0.065778|-0.035778|-0.020778|-0.005778|-0.015778|-0.005778|-0.010778|0.004222|0.029222|0.049222|0.039222|0.039222|0.049222|0.059222|0.079222|0.10422|0.10422|0.094222|0.11422|0.12922|0.13922|0.14422|0.13422|0.14422|0.13922|0.14922|0.17422|0.15422|0.15922|0.15422|0.14922|0.16422|0.16422|0.16422|0.13922|0.11922|0.11422|0.10922|0.10922|0.094222|0.069222|0.059222|0.049222|0.034222|0.039222|0.019222|0.014222|-0.010778|-0.030778|-0.020778|-0.010778|-0.015778|-0.030778|-0.040778|-0.040778|-0.040778|-0.040778|-0.045778|-0.055778|-0.070778|-0.075778|-0.065778|-0.050778|-0.070778|-0.075778|-0.080778|-0.080778|-0.060778|-0.065778|-0.075778|-0.075778|-0.070778|-0.065778|-0.060778|-0.050778|-0.060778|-0.080778|-0.090778|-0.080778|-0.065778|-0.070778|-0.060778|-0.065778|-0.065778|-0.070778|-0.060778|-0.045778|-0.040778|-0.045778|-0.065778|-0.065778|-0.065778|-0.055778|-0.055778|-0.065778|-0.070778|-0.060778|-0.050778|-0.045778|-0.055778|-0.055778|-0.065778|-0.055778|-0.040778|-0.040778|-0.035778|-0.055778|-0.070778|-0.075778|-0.070778|-0.060778|-0.045778|-0.050778|-0.060778|-0.060778|-0.065778|-0.045778|-0.045778|-0.060778|-0.060778|-0.065778|-0.055778|-0.060778|-0.060778|-0.060778|-0.065778|-0.060778|-0.060778|
-0.070778|-0.080778|-0.080778|-0.060778|-0.055778|-0.075778|-0.10078|-0.095778|-0.075778|-0.060778|-0.060778|-0.080778|-0.090778|-0.10078|-0.070778|-0.065778|-0.065778|-0.075778|-0.085778|-0.085778|-0.070778|-0.065778|-0.065778|-0.080778|-0.080778|-0.075778|-0.050778|-0.040778|-0.045778|-0.040778|-0.045778|-0.030778|-0.020778|-0.025778|-0.035778|-0.040778|-0.035778|-0.025778|0.004222|0.019222|0.039222|0.044222|0.054222|0.054222|0.059222|0.064222|0.049222|0.034222|0.019222|0.009222|0.029222|0.024222|0.029222|0.014222|-0.015778|-0.030778|-0.030778|-0.035778|-0.040778|-0.050778|-0.070778|-0.080778|-0.080778|-0.095778|-0.10578|-0.11578|-0.11078|-0.095778|-0.090778|-0.10078|-0.13078|-0.13578|-0.13578|-0.14078|-0.13078|-0.12078|-0.12578|-0.14078|-0.14578|-0.12578|-0.11078|-0.11578|-0.13578|-0.14078|-0.15078|-0.16578|-0.17078|-0.18078|-0.16578|-0.12578|0.019222|0.25922|0.48922|0.74422|0.99922|1.2592|1.3792|1.2942|1.0392|0.74422|0.47422|0.23422|0.099222|0.059222|0.034222|0.004222|-0.040778|-0.065778|-0.070778|-0.065778|-0.080778|-0.10078|-0.14078|-0.16078|-0.16078|-0.17078|-0.16578|-0.17078|-0.19578|-0.21078|-0.20078|-0.19078|-0.18578|-0.18578|-0.19578|-0.22078|-0.21578|-0.20578|-0.19578|-0.21078|-0.21578|-0.20578|-0.20578|-0.19078|-0.18078|-0.19078|-0.19078|-0.20078|-0.20578|-0.19578|-0.19078|-0.18078|-0.19078|-0.20578|-0.19078|-0.18078|-0.19078|-0.20078|-0.20078|-0.20078|-0.19078|-0.18578|-0.18078|-0.19078|-0.19078|-0.19578|-0.18578|-0.19078|-0.17578|-0.17578|-0.18078|-0.20078|-0.19078|-0.18578|-0.17078|-0.18078|-0.17078|-0.17578|-0.17578|-0.17078|-0.15078|-0.15078|-0.14578|-0.15078|-0.15078|-0.13078|-0.12578|-0.11578|-0.11078|-0.12578|-0.11578|-0.095778|-0.070778|-0.070778|-0.090778|-0.070778|-0.060778|-0.035778|-0.020778|-0.005778|-0.005778|0.004222|0.009222|0.029222|0.049222|0.049222|0.049222|0.039222|0.044222|0.074222|0.089222|0.10422|0.094222|0.089222|0.094222|0.099222|0.10922|0.11422|0.10422|0.099222|0.10922|0.094222|0.094222|0.089222|0.074222|0.049222|0.024222|0.029222|0.029222|0.014222|-0.010778|-0.035778|-0.050778|-0.060778|-0.040778|-0.045778|-0.070778|-0.085778|-0.085778|-0.090778|-0.080778|-0.090778|-0.095778|-0.10578|-0.12578|-0.12078|-0.12078|-0.11078|-0.12578|-0.13578|-0.13578|-0.12578|-0.10578|-0.11078|-0.12078|-0.13078|-0.13578|-0.13078|-0.12578|-0.13078|-0.13578|-0.14078|-0.14078|-0.14078|-0.11578|-0.12078|-0.13078|-0.14078|-0.13578|-0.13578|-0.13578|-0.14578|-0.14578|-0.14578|-0.14578|-0.12078|-0.12078|-0.12078|-0.13078|-0.14578|-0.13578|-0.13078|-0.12578|-0.11578|-0.13078|-0.13078|-0.13078|-0.12578|-0.10578|-0.10578|-0.11578|-0.12578|-0.13078|-0.11078|-0.10078|-0.10578|-0.12078|-0.11078|-0.11578|-0.10078|-0.095778|-0.10578|-0.11578|-0.13078|-0.12578|-0.11578|-0.11578|-0.12578|-0.13578|-0.12078|
-0.13078|-0.12078|-0.10078|-0.12578|-0.13578|-0.14578|-0.13578|-0.12578|-0.11578|-0.12078|-0.13578|-0.13578|-0.14578|-0.13078|-0.11578|-0.12578|-0.12078|-0.12078|-0.13078|-0.11578|-0.12578|-0.12578|-0.13578|-0.12578|-0.12078|-0.10578|-0.090778|-0.090778|-0.090778|-0.090778|-0.090778|-0.080778|-0.060778|-0.060778|-0.065778|-0.090778|-0.085778|-0.050778|-0.005778|0.014222|0.034222|0.049222|0.059222|0.059222|0.059222|0.039222|0.039222|0.024222|0.014222|0.009222|0.014222|0.009222|-0.005778|-0.025778|-0.030778|-0.035778|-0.035778|-0.045778|-0.070778|-0.095778|-0.10578|-0.11078|-0.10078|-0.11578|-0.11578|-0.13578|-0.15078|-0.14078|-0.12578|-0.13578|-0.13578|-0.14578|-0.15078|-0.14578|-0.13078|-0.14078|-0.15078|-0.15578|-0.14078|-0.14578|-0.13578|-0.12578|-0.13578|-0.14578|-0.17078|-0.17578|-0.18578|-0.20578|-0.19078|-0.13078|0.014222|0.23922|0.46422|0.71422|1.0042|1.2642|1.3842|1.3242|1.0742|0.76422|0.45922|0.20922|0.054222|0.004222|-0.020778|-0.070778|-0.095778|-0.11078|-0.11078|-0.11078|-0.11578|-0.14578|-0.17078|-0.18578|-0.20078|-0.20078|-0.20078|-0.22078|-0.22578|-0.22078|-0.23078|-0.21578|-0.20578|-0.20578|-0.21078|-0.22578|-0.24078|-0.22578|-0.20578|-0.20578|-0.20078|-0.20578|-0.22078|-0.21578|-0.20078|-0.20578|-0.20578|-0.21078|-0.20078|-0.20078|-0.20078|-0.20078|-0.20578|-0.20578|-0.20078|-0.18578|-0.18578|-0.19578|-0.19078|-0.20578|-0.20578|-0.18578|-0.17078|-0.16578|-0.17078|-0.17578|-0.18578|-0.17578|-0.17078|-0.16078|-0.18078|-0.18578|-0.17578|-0.16578|-0.14578|-0.15078|-0.14078|-0.14578|-0.15078|-0.14578|-0.13578|-0.13578|-0.13578|-0.14078|-0.12578|-0.10578|-0.090778|-0.095778|-0.085778|-0.085778|-0.095778|-0.085778|-0.070778|-0.060778|-0.070778|-0.060778|-0.055778|-0.030778|-0.015778|-0.010778|0.004222|0.004222|0.014222|0.034222|0.039222|0.039222|0.049222|0.054222|0.049222|0.059222|0.079222|0.089222|0.089222|0.089222|0.084222|0.10422|0.11422|0.11422|0.11422|0.099222|0.099222|0.10922|0.11922|0.11922|0.10422|0.10422|0.099222|0.089222|0.079222|0.054222|0.044222|0.039222|0.019222|0.014222|0.014222|-0.00077803|-0.020778|-0.030778|-0.030778|-0.030778|-0.025778|-0.030778|-0.035778|-0.050778|-0.055778|-0.055778|-0.050778|-0.055778|-0.060778|-0.075778|-0.080778|-0.070778|-0.065778|-0.060778|-0.075778|-0.090778|-0.085778|-0.085778|-0.080778|-0.075778|-0.080778|-0.090778|-0.080778|-0.065778|-0.045778|-0.060778|-0.065778|-0.065778|-0.065778|-0.060778|-0.045778|-0.050778|-0.055778|-0.070778|-0.080778|-0.055778|-0.045778|-0.050778|-0.055778|-0.060778|-0.060778|-0.055778|-0.035778|-0.045778|-0.055778|-0.045778|-0.050778|-0.050778|-0.045778|-0.050778|-0.050778|-0.050778|-0.050778|-0.040778|-0.025778|-0.030778|-0.040778|-0.035778|-0.050778|-0.035778|-0.025778|-0.030778|-0.035778|-0.035778|-0.035778|-0.035778|-0.025778|-0.035778|-0.035778|-0.045778|
-0.030778|-0.025778|-0.040778|-0.045778|-0.040778|-0.040778|-0.025778|-0.015778|-0.035778|-0.035778|-0.045778|-0.040778|-0.025778|-0.035778|-0.030778|-0.030778|-0.035778|-0.040778|-0.025778|-0.020778|-0.025778|-0.035778|-0.045778|-0.030778|-0.010778|-0.005778|-0.005778|-0.025778|-0.015778|-0.00077803|0.004222|0.004222|0.009222|-0.00077803|0.009222|0.034222|0.064222|0.084222|0.084222|0.10422|0.12922|0.15422|0.15922|0.15422|0.11922|0.10422|0.094222|0.089222|0.094222|0.084222|0.069222|0.064222|0.059222|0.054222|0.069222|0.049222|0.029222|0.024222|-0.00077803|-0.010778|-0.025778|-0.025778|-0.040778|-0.050778|-0.070778|-0.065778|-0.065778|-0.075778|-0.075778|-0.085778|-0.090778|-0.075778|-0.065778|-0.065778|-0.085778|-0.10078|-0.10078|-0.090778|-0.075778|-0.085778|-0.085778|-0.085778|-0.090778|-0.10578|-0.10078|-0.12078|-0.14578|-0.14578|-0.13078|-0.015778|0.14922|0.35922|0.55922|0.79922|1.0692|1.2592|1.2842|1.1042|0.81422|0.54922|0.28422|0.084222|0.014222|-0.015778|-0.050778|-0.085778|-0.085778|-0.075778|-0.080778|-0.10578|-0.13078|-0.17078|-0.19578|-0.18578|-0.18078|-0.19578|-0.19078|-0.21578|-0.21078|-0.20078|-0.20578|-0.20578|-0.21578|-0.23078|-0.23078|-0.21578|-0.20078|-0.20078|-0.20578|-0.22578|-0.23578|-0.23578|-0.22578|-0.21078|-0.20578|-0.21578|-0.21578|-0.23078|-0.23078|-0.23578|-0.23578|-0.23578|-0.24078|-0.22078|-0.21578|-0.20578|-0.23078|-0.23078|-0.25078|-0.22578|-0.23078|-0.23078|-0.25578|-0.26078|-0.23578|-0.22578|-0.20078|-0.20078|-0.21078|-0.22578|-0.24078|-0.22578|-0.21578|-0.21078|-0.22578|-0.22078|-0.21578|-0.19078|-0.20578|-0.19578|-0.20078|-0.21078|-0.21078|-0.21078|-0.21078|-0.20578|-0.21078|-0.20078|-0.18578|-0.16578|-0.15578|-0.15578|-0.16578|-0.18078|-0.17078|-0.16078|-0.13078|-0.13578|-0.12578|-0.13078|-0.12578|-0.11078|-0.085778|-0.080778|-0.070778|-0.075778|-0.085778|-0.070778|-0.035778|-0.020778|-0.035778|-0.040778|-0.045778|-0.030778|-0.010778|-0.015778|0.004222|-0.00077803|0.004222|0.009222|0.019222|0.019222|0.014222|0.004222|-0.005778|-0.010778|-0.010778|-0.020778|-0.035778|-0.035778|-0.050778|-0.045778|-0.050778|-0.075778|-0.070778|-0.080778|-0.095778|-0.12078|-0.12078|-0.13078|-0.15578|-0.15078|-0.16078|-0.15578|-0.13578|-0.14078|-0.16078|-0.16578|-0.17578|-0.16078|-0.16578|-0.17078|-0.18078|-0.18578|-0.18078|-0.15578|-0.15578|-0.17578|-0.18078|-0.18078|-0.17078|-0.17078|-0.19578|-0.20578|-0.19578|-0.19578|-0.22078|-0.20078|-0.17578|-0.17078|-0.18078|-0.19578|-0.20578|-0.18078|-0.15078|-0.14578|-0.17078|-0.20078|-0.20578|-0.17578|-0.16078|-0.16578|-0.18578|-0.20078|-0.18578|-0.16578|-0.16078|-0.15578|-0.14078|-0.17578|-0.17578|-0.17078|-0.17078|-0.17078|-0.16578|-0.17578|-0.17078|-0.15578|-0.14578|-0.14578|-0.16078|-0.16578|-0.16578|-0.16078|-0.16078|-0.17578|-0.18578|-0.17578|-0.18078|-0.16578|
-0.17078|-0.15078|-0.15578|-0.16578|-0.18578|-0.18078|-0.16078|-0.16078|-0.18078|-0.18578|-0.18078|-0.18078|-0.18078|-0.19078|-0.19578|-0.19578|-0.19078|-0.19078|-0.17078|-0.17578|-0.18578|-0.19578|-0.19578|-0.17578|-0.17578|-0.17578|-0.17578|-0.17578|-0.18578|-0.16578|-0.15578|-0.13578|-0.13078|-0.14078|-0.14078|-0.13578|-0.12078|-0.10578|-0.11578|-0.13078|-0.11578|-0.080778|-0.035778|-0.005778|-0.020778|-0.060778|-0.10078|-0.060778|-0.055778|-0.040778|-0.065778|-0.095778|-0.11578|-0.10578|-0.095778|-0.11578|-0.12078|-0.14578|-0.16578|-0.17078|-0.16578|-0.17578|-0.18578|-0.19078|-0.20578|-0.19078|-0.18578|-0.18078|-0.18078|-0.19078|-0.18578|-0.17078|-0.17578|-0.22078|-0.26578|-0.26578|-0.25078|-0.21578|-0.18078|-0.16578|-0.19078|-0.22578|-0.25078|-0.26078|-0.23578|-0.24078|-0.24078|-0.25578|-0.25078|-0.17578|-0.025778|0.20422|0.46922|0.75922|1.0642|1.3092|1.3492|1.1342|0.79922|0.48922|0.18922|-0.005778|-0.095778|-0.12078|-0.18078|-0.20078|-0.22078|-0.22078|-0.22078|-0.22078|-0.25578|-0.28078|-0.30578|-0.29078|-0.27078|-0.27078|-0.27578|-0.28078|-0.30078|-0.29078|-0.28078|-0.28578|-0.27578|-0.28078|-0.28578|-0.28578|-0.27578|-0.26578|-0.28578|-0.27578|-0.29578|-0.28578|-0.29078|-0.28078|-0.29078|-0.28578|-0.28578|-0.29578|-0.28578|-0.27578|-0.28078|-0.27578|-0.28078|-0.27078|-0.27078|-0.28078|-0.27078|-0.27578|-0.29078|-0.28078|-0.26578|-0.25578|-0.24578|-0.25578|-0.28578|-0.28578|-0.28078|-0.28078|-0.27078|-0.27078|-0.27078|-0.24578|-0.23578|-0.24078|-0.24078|-0.25078|-0.24578|-0.23578|-0.21578|-0.21578|-0.23078|-0.24078|-0.24078|-0.20578|-0.19078|-0.18078|-0.19578|-0.18578|-0.18578|-0.16578|-0.16078|-0.15578|-0.15078|-0.16078|-0.16078|-0.15078|-0.15078|-0.13578|-0.11078|-0.095778|-0.070778|-0.055778|-0.045778|-0.060778|-0.055778|-0.060778|-0.060778|-0.045778|-0.025778|-0.020778|-0.010778|-0.015778|-0.030778|-0.020778|0.004222|-0.010778|-0.015778|-0.020778|-0.025778|-0.030778|-0.040778|-0.035778|-0.035778|-0.065778|-0.075778|-0.085778|-0.085778|-0.085778|-0.10078|-0.12078|-0.12578|-0.12078|-0.12578|-0.13078|-0.15078|-0.16078|-0.18578|-0.16078|-0.16078|-0.14078|-0.17078|-0.17578|-0.18078|-0.18078|-0.18078|-0.18078|-0.17078|-0.16578|-0.17578|-0.16578|-0.16078|-0.17078|-0.18078|-0.17578|-0.18078|-0.16078|-0.14578|-0.14078|-0.16078|-0.15578|-0.16578|-0.17078|-0.15078|-0.14578|-0.14578|-0.17078|-0.18078|-0.15578|-0.14078|-0.13578|-0.15578|-0.16578|-0.15078|-0.13578|-0.11578|-0.11578|-0.12578|-0.14078|-0.14078|-0.13078|-0.13078|-0.14078|-0.13078|-0.13078|-0.13078|-0.11578|-0.11578|-0.12578|-0.14078|-0.14078|-0.13578|-0.12578|-0.11578|-0.12578|-0.14078|-0.15078|-0.15578|-0.10578|-0.10078|-0.085778|-0.075778|-0.065778|-0.070778|-0.10578|-0.12578|-0.16578|-0.17578|-0.18078|-0.18078|-0.15578|
-0.090778|-0.10578|-0.14078|-0.13578|-0.12578|-0.12078|-0.11078|-0.11078|-0.10078|-0.10578|-0.10078|-0.095778|-0.090778|-0.080778|-0.075778|-0.070778|-0.070778|-0.065778|-0.085778|-0.090778|-0.095778|-0.10078|-0.085778|-0.070778|-0.080778|-0.085778|-0.095778|-0.095778|-0.080778|-0.055778|-0.045778|-0.050778|-0.060778|-0.065778|-0.070778|-0.040778|-0.025778|-0.035778|-0.045778|-0.035778|-0.005778|0.029222|0.054222|0.094222|0.10922|0.099222|0.10422|0.084222|0.079222|0.064222|0.054222|0.049222|0.039222|0.034222|0.034222|0.029222|0.034222|0.034222|0.044222|0.029222|0.014222|0.009222|0.009222|-0.00077803|0.004222|-0.020778|-0.060778|-0.080778|-0.070778|-0.080778|-0.085778|-0.070778|-0.090778|-0.080778|-0.10078|-0.095778|-0.090778|-0.075778|-0.085778|-0.090778|-0.10078|-0.090778|-0.080778|-0.060778|-0.080778|-0.10078|-0.13578|-0.15578|-0.16578|-0.095778|0.064222|0.29422|0.60422|0.97922|1.3792|1.6492|1.6592|1.4142|1.0342|0.67422|0.40422|0.26922|0.21922|0.18422|0.11422|0.084222|0.059222|0.049222|0.014222|-0.020778|-0.070778|-0.090778|-0.095778|-0.11078|-0.095778|-0.11078|-0.12078|-0.14078|-0.13078|-0.12578|-0.12078|-0.11578|-0.13578|-0.14578|-0.13078|-0.13078|-0.14078|-0.15078|-0.14078|-0.14578|-0.13578|-0.12578|-0.12078|-0.13078|-0.13078|-0.14078|-0.12578|-0.11578|-0.10578|-0.12078|-0.13078|-0.13578|-0.12578|-0.10578|-0.10578|-0.11078|-0.13078|-0.13578|-0.11578|-0.11078|-0.12578|-0.13578|-0.13578|-0.13078|-0.13078|-0.10578|-0.11078|-0.10578|-0.11078|-0.10578|-0.11078|-0.10578|-0.10078|-0.10078|-0.11078|-0.10078|-0.090778|-0.075778|-0.090778|-0.085778|-0.075778|-0.070778|-0.045778|-0.035778|-0.030778|-0.035778|-0.040778|-0.035778|0.004222|0.024222|0.029222|0.024222|0.019222|0.024222|0.054222|0.079222|0.094222|0.094222|0.094222|0.099222|0.12922|0.14922|0.16922|0.15922|0.15922|0.17422|0.17422|0.17922|0.19422|0.19422|0.20422|0.20422|0.19422|0.21922|0.19422|0.19422|0.19422|0.18422|0.17422|0.15922|0.15422|0.13922|0.11922|0.094222|0.089222|0.084222|0.074222|0.054222|0.039222|0.024222|0.014222|0.019222|0.014222|0.004222|-0.010778|-0.040778|-0.030778|-0.025778|-0.015778|-0.005778|-0.025778|-0.035778|-0.035778|-0.020778|-0.025778|-0.045778|-0.060778|-0.070778|-0.055778|-0.045778|-0.050778|-0.040778|-0.040778|-0.045778|-0.045778|-0.035778|-0.040778|-0.045778|-0.050778|-0.050778|-0.045778|-0.030778|-0.040778|-0.035778|-0.030778|-0.040778|-0.025778|-0.030778|-0.025778|-0.010778|-0.020778|-0.030778|-0.040778|-0.025778|-0.025778|-0.020778|-0.010778|-0.025778|-0.020778|-0.010778|-0.00077803|-0.00077803|-0.00077803|-0.015778|-0.025778|-0.015778|-0.010778|0.004222|-0.025778|-0.025778|-0.010778|0.009222|0.009222|-0.005778|-0.015778|-0.025778|-0.015778|0.009222|0.004222|-0.00077803|-0.015778|-0.025778|-0.015778|0.004222|-0.00077803|-0.015778|-0.020778|-0.025778|-0.015778|-0.010778|
-0.00077803|-0.005778|-0.015778|-0.005778|-0.010778|-0.005778|-0.005778|-0.010778|-0.015778|-0.015778|-0.010778|-0.005778|-0.010778|-0.005778|-0.025778|-0.015778|-0.005778|-0.00077803|-0.00077803|-0.020778|-0.015778|-0.015778|-0.010778|0.004222|-0.00077803|-0.020778|-0.015778|-0.010778|0.014222|0.024222|0.024222|0.014222|-0.00077803|0.019222|0.034222|0.039222|0.029222|0.014222|0.014222|0.034222|0.054222|0.094222|0.13422|0.14922|0.14922|0.12922|0.13422|0.13422|0.13422|0.12422|0.099222|0.074222|0.079222|0.079222|0.069222|0.059222|0.054222|0.064222|0.074222|0.054222|0.034222|-0.005778|-0.015778|-0.010778|-0.020778|-0.020778|-0.045778|-0.050778|-0.050778|-0.055778|-0.050778|-0.045778|-0.035778|-0.030778|-0.055778|-0.055778|-0.030778|-0.030778|-0.050778|-0.060778|-0.065778|-0.065778|-0.050778|-0.050778|-0.045778|-0.060778|-0.070778|-0.070778|-0.080778|-0.050778|0.079222|0.29922|0.60422|0.97922|1.3592|1.6092|1.5892|1.3292|0.97422|0.64422|0.38922|0.26422|0.22922|0.18922|0.13922|0.099222|0.079222|0.074222|0.049222|0.014222|-0.00077803|-0.005778|-0.015778|-0.020778|-0.035778|-0.030778|-0.020778|-0.025778|-0.075778|-0.14078|-0.18578|-0.21078|-0.21078|-0.19078|-0.17078|-0.16578|-0.16578|-0.17078|-0.16578|-0.16078|-0.14078|-0.13578|-0.13578|-0.13578|-0.13578|-0.13078|-0.13078|-0.12078|-0.13078|-0.15078|-0.15078|-0.12578|-0.11578|-0.12578|-0.12578|-0.13578|-0.13078|-0.12578|-0.13078|-0.13078|-0.13578|-0.13578|-0.15078|-0.15078|-0.14578|-0.15578|-0.15078|-0.14578|-0.14578|-0.13578|-0.12078|-0.11578|-0.13578|-0.15078|-0.16078|-0.13078|-0.12078|-0.12578|-0.13078|-0.13578|-0.15078|-0.12578|-0.11578|-0.10578|-0.10578|-0.12078|-0.11078|-0.085778|-0.080778|-0.075778|-0.075778|-0.075778|-0.045778|-0.035778|-0.030778|-0.040778|-0.045778|-0.035778|-0.035778|0.004222|0.034222|0.049222|0.074222|0.074222|0.059222|0.094222|0.11922|0.11422|0.10422|0.089222|0.074222|0.084222|0.10922|0.12422|0.10922|0.10922|0.10422|0.11422|0.11922|0.12422|0.10922|0.094222|0.089222|0.094222|0.064222|0.029222|-0.015778|-0.055778|-0.050778|-0.035778|-0.030778|-0.050778|-0.060778|-0.065778|-0.065778|-0.075778|-0.080778|-0.080778|-0.080778|-0.070778|-0.085778|-0.085778|-0.080778|-0.080778|-0.090778|-0.10078|-0.10078|-0.085778|-0.095778|-0.10578|-0.12078|-0.11578|-0.12078|-0.12078|-0.10078|-0.090778|-0.10078|-0.11078|-0.13078|-0.11078|-0.090778|-0.080778|-0.085778|-0.11078|-0.10578|-0.11078|-0.095778|-0.090778|-0.085778|-0.10578|-0.12078|-0.10078|-0.085778|-0.075778|-0.075778|-0.085778|-0.090778|-0.10078|-0.080778|-0.075778|-0.075778|-0.070778|-0.070778|-0.060778|-0.060778|-0.055778|-0.055778|-0.070778|-0.085778|-0.075778|-0.070778|-0.065778|-0.050778|-0.055778|-0.050778|-0.050778|-0.055778|-0.055778|-0.080778|-0.065778|-0.050778|-0.050778|-0.040778|-0.055778|-0.070778|-0.090778|-0.090778|-0.060778|-0.040778|-0.040778|
-0.060778|-0.040778|-0.030778|-0.025778|-0.020778|0.029222|0.074222|0.054222|-0.005778|-0.075778|-0.12078|-0.15578|-0.17078|-0.15578|-0.13578|-0.11578|-0.10078|-0.075778|-0.045778|-0.010778|-0.015778|-0.060778|-0.11578|-0.12578|-0.095778|-0.080778|-0.085778|-0.090778|-0.095778|-0.065778|-0.055778|-0.055778|-0.045778|-0.045778|-0.045778|-0.035778|-0.035778|-0.040778|-0.055778|-0.055778|-0.030778|-0.010778|0.034222|0.079222|0.10922|0.089222|0.069222|0.069222|0.069222|0.069222|0.064222|0.049222|0.034222|0.034222|0.034222|0.039222|0.034222|0.019222|-0.00077803|-0.010778|-0.020778|-0.025778|-0.060778|-0.085778|-0.090778|-0.080778|-0.070778|-0.065778|-0.065778|-0.075778|-0.095778|-0.085778|-0.075778|-0.075778|-0.080778|-0.090778|-0.10578|-0.10578|-0.080778|-0.070778|-0.075778|-0.095778|-0.095778|-0.095778|-0.10078|-0.11078|-0.12578|-0.16078|-0.15578|-0.080778|0.10922|0.36422|0.63422|0.93922|1.2592|1.4942|1.5042|1.2792|0.95422|0.61922|0.32922|0.17922|0.15922|0.11922|0.064222|0.044222|0.014222|-0.010778|-0.045778|-0.075778|-0.10078|-0.11578|-0.12078|-0.12078|-0.12578|-0.14078|-0.16578|-0.19578|-0.20078|-0.18078|-0.16578|-0.16078|-0.15078|-0.15078|-0.16078|-0.15578|-0.15578|-0.17578|-0.18078|-0.19078|-0.19078|-0.18578|-0.16578|-0.16578|-0.16578|-0.16578|-0.16578|-0.15078|-0.14578|-0.16078|-0.17078|-0.18078|-0.19078|-0.18078|-0.17078|-0.17578|-0.17078|-0.19078|-0.19078|-0.18578|-0.16578|-0.15078|-0.15578|-0.15578|-0.17078|-0.16578|-0.15578|-0.13078|-0.14578|-0.15578|-0.16078|-0.15078|-0.14078|-0.13578|-0.13078|-0.14078|-0.14078|-0.13578|-0.12578|-0.12078|-0.12078|-0.12078|-0.12078|-0.11078|-0.095778|-0.085778|-0.075778|-0.085778|-0.085778|-0.070778|-0.045778|-0.030778|-0.035778|-0.035778|-0.040778|-0.025778|-0.010778|-0.005778|-0.00077803|-0.00077803|-0.005778|0.009222|0.029222|0.044222|0.064222|0.069222|0.069222|0.094222|0.10922|0.10922|0.089222|0.084222|0.089222|0.12922|0.15422|0.16422|0.17422|0.17422|0.17422|0.17922|0.15922|0.13922|0.12422|0.10422|0.099222|0.099222|0.10922|0.11922|0.11422|0.079222|0.039222|0.024222|0.014222|0.014222|0.004222|-0.00077803|-0.015778|-0.010778|-0.015778|-0.015778|-0.030778|-0.035778|-0.045778|-0.020778|-0.015778|-0.035778|-0.035778|-0.030778|-0.045778|-0.035778|-0.025778|-0.035778|-0.045778|-0.055778|-0.050778|-0.045778|-0.030778|-0.025778|-0.025778|-0.045778|-0.050778|-0.040778|-0.035778|-0.020778|-0.045778|-0.045778|-0.045778|-0.030778|-0.010778|-0.005778|-0.015778|-0.015778|-0.040778|-0.015778|-0.010778|-0.00077803|-0.015778|-0.020778|-0.010778|-0.010778|0.004222|0.019222|0.009222|-0.015778|-0.020778|-0.030778|-0.030778|-0.015778|-0.025778|-0.020778|-0.005778|0.004222|0.019222|-0.010778|-0.00077803|-0.025778|-0.005778|0.009222|0.014222|0.009222|0.014222|0.004222|-0.025778|-0.015778|-0.005778|-0.010778|0.004222|-0.005778|-0.010778|0.004222|
0.009222|0.009222|0.014222|-0.010778|-0.035778|-0.045778|-0.030778|-0.025778|-0.015778|-0.020778|-0.020778|-0.020778|-0.015778|0.004222|0.004222|-0.005778|-0.010778|-0.025778|-0.005778|-0.005778|0.009222|0.014222|0.009222|-0.00077803|0.004222|0.014222|0.019222|0.014222|0.004222|0.009222|0.034222|0.039222|0.024222|0.019222|0.019222|0.034222|0.074222|0.10922|0.13922|0.16422|0.17922|0.16922|0.16922|0.15422|0.16422|0.14922|0.14922|0.11922|0.11922|0.10422|0.099222|0.079222|0.089222|0.074222|0.079222|0.074222|0.059222|0.044222|0.014222|-0.005778|-0.015778|-0.020778|-0.020778|-0.035778|-0.040778|-0.050778|-0.030778|-0.025778|-0.030778|-0.035778|-0.035778|-0.055778|-0.030778|-0.025778|-0.025778|-0.040778|-0.040778|-0.050778|-0.040778|-0.015778|-0.015778|-0.030778|-0.050778|-0.050778|-0.055778|-0.070778|-0.095778|-0.10078|-0.085778|-0.015778|0.15422|0.35422|0.57422|0.82922|1.1142|1.3442|1.4292|1.2992|1.0192|0.70922|0.44922|0.24422|0.13922|0.12922|0.11422|0.099222|0.074222|0.039222|0.004222|-0.005778|-0.030778|-0.060778|-0.085778|-0.11078|-0.15078|-0.14578|-0.14578|-0.13578|-0.13578|-0.16078|-0.15578|-0.15078|-0.14078|-0.14578|-0.15578|-0.15578|-0.14578|-0.14578|-0.15078|-0.15578|-0.17078|-0.17078|-0.16078|-0.15078|-0.14078|-0.13578|-0.13578|-0.14578|-0.15578|-0.13078|-0.13078|-0.14578|-0.15078|-0.15578|-0.15078|-0.14578|-0.13078|-0.13578|-0.13578|-0.14578|-0.13578|-0.12578|-0.12078|-0.12578|-0.12578|-0.14078|-0.12578|-0.10578|-0.095778|-0.10078|-0.12078|-0.13078|-0.13078|-0.12578|-0.12078|-0.11578|-0.12578|-0.13578|-0.12578|-0.12578|-0.11078|-0.11078|-0.12078|-0.11578|-0.10578|-0.095778|-0.090778|-0.090778|-0.095778|-0.090778|-0.085778|-0.080778|-0.070778|-0.065778|-0.065778|-0.070778|-0.065778|-0.050778|-0.030778|-0.020778|-0.015778|-0.015778|0.004222|0.019222|0.029222|0.019222|0.024222|0.019222|0.014222|0.039222|0.059222|0.049222|0.069222|0.069222|0.079222|0.094222|0.10922|0.10922|0.10422|0.10922|0.11422|0.13422|0.14422|0.13922|0.13422|0.12422|0.13422|0.11422|0.11422|0.10922|0.074222|0.044222|0.034222|0.034222|0.044222|0.039222|0.034222|0.009222|0.024222|0.009222|-0.005778|-0.020778|-0.030778|-0.045778|-0.035778|-0.045778|-0.040778|-0.020778|-0.030778|-0.040778|-0.040778|-0.040778|-0.045778|-0.035778|-0.055778|-0.080778|-0.065778|-0.070778|-0.070778|-0.065778|-0.070778|-0.075778|-0.070778|-0.040778|-0.020778|-0.035778|-0.040778|-0.055778|-0.055778|-0.050778|-0.035778|-0.045778|-0.060778|-0.060778|-0.045778|-0.025778|-0.030778|-0.040778|-0.050778|-0.060778|-0.050778|-0.035778|-0.040778|-0.050778|-0.060778|-0.065778|-0.050778|-0.050778|-0.030778|-0.035778|-0.030778|-0.040778|-0.025778|-0.025778|-0.020778|-0.020778|-0.025778|-0.045778|-0.040778|-0.030778|-0.010778|-0.010778|-0.015778|-0.025778|-0.010778|-0.005778|-0.005778|-0.030778|-0.030778|-0.025778|
-0.045778|-0.030778|-0.045778|-0.030778|-0.045778|-0.040778|-0.035778|-0.020778|-0.030778|-0.030778|-0.030778|-0.050778|-0.040778|-0.040778|-0.035778|-0.025778|-0.030778|-0.035778|-0.035778|-0.025778|-0.015778|-0.010778|-0.035778|-0.050778|-0.020778|0.009222|0.014222|0.014222|0.004222|-0.020778|-0.020778|0.009222|0.009222|0.009222|-0.00077803|-0.005778|0.014222|0.069222|0.084222|0.099222|0.12922|0.14922|0.13922|0.10922|0.089222|0.069222|0.054222|0.039222|0.044222|0.044222|0.054222|0.054222|0.044222|0.029222|0.029222|0.014222|0.004222|-0.00077803|-0.015778|-0.030778|-0.055778|-0.055778|-0.055778|-0.045778|-0.055778|-0.075778|-0.065778|-0.050778|-0.035778|-0.060778|-0.075778|-0.085778|-0.090778|-0.10078|-0.085778|-0.070778|-0.075778|-0.090778|-0.10078|-0.075778|-0.045778|-0.045778|-0.060778|-0.10078|-0.11578|-0.13078|-0.13078|-0.13578|-0.10078|0.004222|0.20422|0.43922|0.70922|1.0292|1.3142|1.4492|1.3692|1.1342|0.85422|0.58422|0.31422|0.13922|0.089222|0.064222|0.019222|-0.020778|-0.045778|-0.050778|-0.070778|-0.095778|-0.13578|-0.16078|-0.16578|-0.17578|-0.16078|-0.15078|-0.16578|-0.16578|-0.18078|-0.19078|-0.19078|-0.19078|-0.19578|-0.18578|-0.17578|-0.18078|-0.17578|-0.15578|-0.14578|-0.14578|-0.15578|-0.16578|-0.18078|-0.19578|-0.20078|-0.20078|-0.19078|-0.19578|-0.19078|-0.18078|-0.15578|-0.16578|-0.17078|-0.17078|-0.18078|-0.16578|-0.16578|-0.18078|-0.20078|-0.20078|-0.19078|-0.18578|-0.18078|-0.18078|-0.18578|-0.18578|-0.17078|-0.16578|-0.15578|-0.15578|-0.17578|-0.19078|-0.16078|-0.16078|-0.13578|-0.13578|-0.13578|-0.14578|-0.15078|-0.13578|-0.12578|-0.12578|-0.12078|-0.12078|-0.11078|-0.10078|-0.090778|-0.080778|-0.095778|-0.10078|-0.080778|-0.065778|-0.060778|-0.050778|-0.050778|-0.045778|-0.025778|-0.020778|-0.00077803|0.009222|0.009222|0.004222|0.019222|0.029222|0.049222|0.084222|0.064222|0.054222|0.054222|0.059222|0.084222|0.094222|0.099222|0.084222|0.089222|0.099222|0.10922|0.10422|0.10422|0.099222|0.094222|0.10922|0.099222|0.084222|0.059222|0.039222|0.034222|0.039222|0.049222|0.039222|0.009222|-0.005778|-0.015778|-0.010778|-0.020778|-0.020778|-0.030778|-0.050778|-0.050778|-0.055778|-0.040778|-0.050778|-0.070778|-0.080778|-0.080778|-0.070778|-0.055778|-0.070778|-0.065778|-0.075778|-0.075778|-0.065778|-0.080778|-0.085778|-0.085778|-0.085778|-0.080778|-0.065778|-0.060778|-0.070778|-0.090778|-0.10078|-0.10578|-0.080778|-0.060778|-0.055778|-0.065778|-0.075778|-0.065778|-0.060778|-0.045778|-0.055778|-0.060778|-0.080778|-0.065778|-0.045778|-0.030778|-0.040778|-0.045778|-0.060778|-0.050778|-0.045778|-0.035778|-0.030778|-0.050778|-0.045778|-0.050778|-0.035778|-0.035778|-0.030778|-0.035778|-0.035778|-0.040778|-0.040778|-0.040778|-0.035778|-0.040778|-0.050778|-0.040778|-0.035778|-0.025778|-0.030778|-0.035778|-0.055778|-0.035778|-0.035778|-0.020778|-0.025778|-0.030778|-0.055778|
-0.045778|-0.040778|-0.035778|-0.035778|-0.040778|-0.045778|-0.060778|-0.055778|-0.040778|-0.035778|-0.050778|-0.045778|-0.060778|-0.050778|-0.040778|-0.025778|-0.030778|-0.035778|-0.050778|-0.055778|-0.035778|-0.035778|-0.035778|-0.025778|-0.025778|-0.015778|-0.015778|-0.025778|-0.030778|-0.040778|-0.035778|-0.025778|-0.00077803|0.014222|-0.00077803|-0.00077803|-0.015778|-0.005778|0.024222|0.049222|0.069222|0.094222|0.11422|0.14422|0.14922|0.14422|0.11422|0.11922|0.10922|0.099222|0.089222|0.084222|0.079222|0.059222|0.059222|0.064222|0.069222|0.059222|0.049222|0.024222|0.004222|0.004222|-0.010778|-0.010778|-0.020778|-0.030778|-0.040778|-0.045778|-0.030778|-0.020778|-0.015778|-0.030778|-0.050778|-0.055778|-0.045778|-0.030778|-0.035778|-0.050778|-0.055778|-0.060778|-0.055778|-0.040778|-0.050778|-0.070778|-0.080778|-0.090778|-0.10078|-0.10578|-0.11078|-0.075778|0.039222|0.24422|0.47422|0.76422|1.0942|1.3792|1.4742|1.3192|1.0192|0.73422|0.46422|0.26922|0.18922|0.17422|0.14922|0.11922|0.094222|0.059222|0.039222|0.014222|-0.020778|-0.040778|-0.080778|-0.095778|-0.11078|-0.10578|-0.10078|-0.090778|-0.10078|-0.11078|-0.12578|-0.12078|-0.11578|-0.11078|-0.11578|-0.13578|-0.13578|-0.12578|-0.12078|-0.12078|-0.12078|-0.12078|-0.11578|-0.10578|-0.10078|-0.11578|-0.12078|-0.11578|-0.13078|-0.11578|-0.13578|-0.10078|-0.10578|-0.10078|-0.11578|-0.10078|-0.10578|-0.11078|-0.12578|-0.13078|-0.13078|-0.13078|-0.11078|-0.10578|-0.095778|-0.095778|-0.11078|-0.10578|-0.090778|-0.085778|-0.080778|-0.10578|-0.11578|-0.11078|-0.095778|-0.080778|-0.080778|-0.080778|-0.085778|-0.070778|-0.060778|-0.060778|-0.055778|-0.060778|-0.065778|-0.050778|-0.035778|-0.020778|-0.010778|-0.010778|-0.025778|0.004222|0.019222|0.039222|0.049222|0.039222|0.034222|0.044222|0.079222|0.094222|0.10422|0.11922|0.12922|0.12422|0.13922|0.14422|0.13922|0.14922|0.12922|0.12922|0.15922|0.16922|0.17922|0.17922|0.16922|0.16922|0.18422|0.17922|0.15422|0.13922|0.10922|0.11422|0.10922|0.11422|0.094222|0.069222|0.064222|0.054222|0.049222|0.044222|0.024222|0.004222|-0.005778|-0.015778|0.004222|-0.00077803|-0.015778|-0.025778|-0.045778|-0.050778|-0.035778|-0.025778|-0.040778|-0.040778|-0.055778|-0.055778|-0.040778|-0.025778|-0.025778|-0.045778|-0.060778|-0.055778|-0.050778|-0.050778|-0.030778|-0.040778|-0.050778|-0.055778|-0.040778|-0.015778|-0.015778|-0.035778|-0.050778|-0.035778|-0.020778|-0.020778|-0.025778|-0.030778|-0.035778|-0.030778|-0.020778|-0.015778|-0.005778|-0.010778|-0.020778|-0.00077803|0.004222|0.004222|-0.010778|-0.030778|-0.040778|-0.030778|-0.010778|-0.00077803|0.014222|0.004222|-0.015778|-0.010778|0.004222|0.014222|0.014222|-0.00077803|-0.015778|-0.010778|0.004222|0.009222|0.009222|0.004222|-0.005778|0.009222|0.014222|0.019222|0.009222|-0.005778|-0.010778|-0.010778|-0.00077803|0.014222|0.004222|-0.005778|
0.009222|-0.010778|-0.00077803|0.004222|0.019222|0.009222|-0.010778|-0.015778|-0.00077803|-0.00077803|0.009222|0.009222|0.004222|-0.00077803|-0.00077803|0.004222|-0.005778|0.014222|-0.00077803|-0.00077803|-0.00077803|0.004222|0.009222|0.014222|-0.00077803|-0.005778|0.004222|0.004222|0.024222|0.029222|0.014222|0.004222|0.014222|0.029222|0.034222|0.034222|0.034222|0.039222|0.039222|0.059222|0.084222|0.10422|0.11422|0.13422|0.16422|0.19422|0.19422|0.17922|0.16422|0.13922|0.12922|0.11922|0.12422|0.12422|0.12422|0.11922|0.12422|0.11922|0.094222|0.079222|0.054222|0.034222|0.024222|-0.00077803|0.014222|0.019222|0.019222|0.014222|0.024222|0.029222|0.019222|0.019222|-0.005778|-0.015778|-0.005778|0.004222|0.009222|0.014222|0.004222|-0.00077803|-0.010778|-0.005778|0.009222|0.009222|-0.010778|-0.040778|-0.055778|-0.070778|-0.035778|0.024222|0.15422|0.31422|0.56922|0.88422|1.2342|1.4742|1.4992|1.2792|0.95422|0.65922|0.45422|0.33922|0.30422|0.28922|0.25922|0.23422|0.21422|0.17922|0.13922|0.074222|0.039222|0.009222|0.004222|-0.00077803|-0.015778|-0.035778|-0.035778|-0.045778|-0.030778|-0.035778|-0.045778|-0.060778|-0.055778|-0.050778|-0.060778|-0.055778|-0.055778|-0.070778|-0.065778|-0.070778|-0.060778|-0.065778|-0.080778|-0.075778|-0.080778|-0.060778|-0.060778|-0.055778|-0.065778|-0.080778|-0.065778|-0.065778|-0.045778|-0.045778|-0.055778|-0.065778|-0.060778|-0.065778|-0.040778|-0.035778|-0.030778|-0.060778|-0.065778|-0.055778|-0.045778|-0.045778|-0.050778|-0.050778|-0.045778|-0.045778|-0.030778|-0.030778|-0.030778|-0.030778|-0.030778|-0.010778|-0.005778|-0.020778|-0.025778|-0.030778|-0.005778|0.014222|0.029222|0.024222|0.014222|-0.005778|-0.00077803|0.024222|0.034222|0.034222|0.049222|0.039222|0.059222|0.069222|0.099222|0.099222|0.094222|0.084222|0.074222|0.094222|0.11422|0.10922|0.12922|0.13422|0.14922|0.16422|0.18422|0.19922|0.19922|0.19422|0.19422|0.20922|0.22422|0.23422|0.21922|0.19922|0.21422|0.22922|0.21422|0.20922|0.19422|0.17922|0.16922|0.16922|0.15922|0.15422|0.12922|0.11422|0.11922|0.10922|0.10922|0.089222|0.074222|0.059222|0.049222|0.054222|0.044222|0.064222|0.054222|0.049222|0.039222|0.054222|0.049222|0.049222|0.039222|0.019222|0.024222|0.034222|0.039222|0.024222|0.009222|-0.00077803|0.009222|0.024222|0.029222|0.034222|0.034222|0.034222|0.044222|0.044222|0.039222|0.019222|0.009222|-0.00077803|0.009222|0.019222|0.024222|0.024222|0.024222|0.019222|0.029222|0.034222|0.044222|0.034222|0.034222|0.039222|0.039222|0.049222|0.059222|0.064222|0.049222|0.024222|0.039222|0.049222|0.054222|0.059222|0.054222|0.049222|0.044222|0.059222|0.069222|0.064222|0.064222|0.044222|0.044222|0.034222|0.044222|0.034222|0.039222|0.029222|0.049222|0.044222|0.044222|0.044222|0.049222|0.044222|0.059222|0.069222|0.059222|0.049222|
0.044222|0.049222|0.059222|0.069222|0.044222|0.049222|0.034222|0.039222|0.054222|0.049222|0.049222|0.039222|0.029222|0.044222|0.044222|0.069222|0.059222|0.039222|0.039222|0.049222|0.059222|0.059222|0.049222|0.034222|0.039222|0.044222|0.054222|0.069222|0.059222|0.064222|0.064222|0.074222|0.099222|0.10422|0.094222|0.094222|0.089222|0.089222|0.10922|0.10922|0.12922|0.14422|0.18422|0.22422|0.24422|0.22422|0.20422|0.18922|0.19422|0.19922|0.19422|0.17422|0.15922|0.15922|0.14922|0.14922|0.15922|0.14422|0.12422|0.10922|0.099222|0.079222|0.059222|0.054222|0.054222|0.039222|0.034222|0.029222|0.044222|0.044222|0.039222|0.019222|0.034222|0.034222|0.039222|0.039222|0.014222|0.004222|0.029222|0.014222|0.034222|0.029222|0.024222|0.019222|0.009222|-0.005778|-0.020778|-0.040778|-0.045778|-0.030778|0.059222|0.23922|0.46922|0.74922|1.0792|1.3692|1.4392|1.2792|0.98922|0.67922|0.43422|0.33422|0.33922|0.31922|0.28422|0.22422|0.16922|0.11422|0.059222|0.029222|0.014222|0.009222|-0.020778|-0.045778|-0.065778|-0.060778|-0.060778|-0.060778|-0.060778|-0.075778|-0.070778|-0.075778|-0.055778|-0.060778|-0.065778|-0.070778|-0.090778|-0.080778|-0.070778|-0.070778|-0.075778|-0.095778|-0.095778|-0.060778|-0.060778|-0.070778|-0.075778|-0.095778|-0.085778|-0.070778|-0.060778|-0.075778|-0.080778|-0.075778|-0.075778|-0.070778|-0.050778|-0.065778|-0.080778|-0.075778|-0.075778|-0.055778|-0.045778|-0.055778|-0.065778|-0.085778|-0.075778|-0.055778|-0.030778|-0.035778|-0.050778|-0.060778|-0.055778|-0.035778|-0.030778|-0.010778|-0.020778|-0.025778|-0.025778|-0.010778|-0.005778|-0.005778|-0.00077803|-0.010778|-0.00077803|-0.00077803|0.019222|0.034222|0.054222|0.054222|0.064222|0.074222|0.089222|0.074222|0.084222|0.079222|0.094222|0.10922|0.11922|0.13422|0.13922|0.13422|0.13922|0.15422|0.18422|0.18422|0.17922|0.17922|0.17922|0.18422|0.19922|0.20422|0.19422|0.18422|0.16922|0.17422|0.17922|0.15922|0.14422|0.12422|0.10922|0.11422|0.10922|0.10422|0.10422|0.084222|0.064222|0.059222|0.064222|0.064222|0.064222|0.049222|0.029222|0.029222|0.029222|0.029222|0.024222|0.029222|0.009222|-0.005778|-0.005778|-0.00077803|0.004222|-0.010778|-0.010778|-0.00077803|0.019222|0.009222|0.009222|-0.005778|-0.020778|-0.015778|0.019222|0.044222|0.024222|0.019222|0.009222|0.024222|0.029222|0.019222|0.024222|0.029222|0.019222|0.024222|0.049222|0.044222|0.039222|0.019222|0.034222|0.039222|0.039222|0.039222|0.039222|0.029222|0.039222|0.049222|0.059222|0.054222|0.044222|0.044222|0.039222|0.044222|0.054222|0.044222|0.049222|0.054222|0.029222|0.029222|0.064222|0.059222|0.049222|0.039222|0.029222|0.019222|0.039222|0.039222|0.039222|0.034222|0.044222|0.039222|0.029222|0.019222|0.034222|0.034222|0.029222|0.039222|0.044222|0.039222|0.039222|0.029222|
0.019222|0.029222|0.034222|0.014222|0.014222|0.019222|0.039222|0.044222|0.034222|0.019222|0.009222|0.004222|0.019222|0.034222|0.039222|0.039222|0.019222|0.014222|0.029222|0.039222|0.034222|0.024222|0.004222|-0.00077803|0.009222|0.019222|0.014222|0.019222|-0.00077803|0.019222|0.044222|0.039222|0.024222|0.009222|0.009222|0.004222|0.019222|0.029222|0.029222|0.044222|0.064222|0.094222|0.14422|0.18422|0.17922|0.16422|0.13922|0.12422|0.12922|0.12422|0.099222|0.094222|0.084222|0.074222|0.089222|0.10422|0.099222|0.089222|0.064222|0.034222|0.019222|0.024222|-0.00077803|-0.015778|-0.035778|-0.045778|-0.035778|-0.020778|-0.020778|-0.020778|-0.030778|-0.040778|-0.050778|-0.050778|-0.045778|-0.055778|-0.055778|-0.075778|-0.060778|-0.060778|-0.055778|-0.070778|-0.065778|-0.070778|-0.070778|-0.075778|-0.10078|-0.10078|-0.11078|-0.070778|0.029222|0.20922|0.38922|0.61922|0.91922|1.1792|1.2342|1.0392|0.71422|0.43422|0.23922|0.12422|0.099222|0.099222|0.059222|0.044222|0.029222|-0.020778|-0.035778|-0.075778|-0.11578|-0.13578|-0.15078|-0.15578|-0.16078|-0.16078|-0.17078|-0.20078|-0.22078|-0.21578|-0.18578|-0.18078|-0.17578|-0.19578|-0.19578|-0.19078|-0.18078|-0.17578|-0.19078|-0.20578|-0.22078|-0.22078|-0.21078|-0.19578|-0.19078|-0.22578|-0.24578|-0.23578|-0.22078|-0.21578|-0.21578|-0.22578|-0.23578|-0.23078|-0.23578|-0.25078|-0.24078|-0.23578|-0.23578|-0.24078|-0.22078|-0.20078|-0.22578|-0.26578|-0.28078|-0.26578|-0.24078|-0.21578|-0.23078|-0.24078|-0.24078|-0.23578|-0.22078|-0.19578|-0.19578|-0.21078|-0.22078|-0.21578|-0.20578|-0.19078|-0.20078|-0.21578|-0.22078|-0.20078|-0.19578|-0.18578|-0.17578|-0.17578|-0.17578|-0.16578|-0.15078|-0.14078|-0.13578|-0.12078|-0.12078|-0.10078|-0.080778|-0.070778|-0.075778|-0.075778|-0.080778|-0.080778|-0.060778|-0.035778|-0.030778|-0.045778|-0.050778|-0.065778|-0.050778|-0.020778|-0.010778|-0.010778|-0.025778|-0.025778|-0.035778|-0.035778|-0.060778|-0.060778|-0.080778|-0.085778|-0.085778|-0.090778|-0.095778|-0.10578|-0.11578|-0.14078|-0.14078|-0.13578|-0.14578|-0.15078|-0.15078|-0.16078|-0.16078|-0.16578|-0.17078|-0.18078|-0.19578|-0.20078|-0.20078|-0.18578|-0.18078|-0.19078|-0.20078|-0.20078|-0.19078|-0.18578|-0.19078|-0.18078|-0.20078|-0.20078|-0.18578|-0.17078|-0.17578|-0.18078|-0.18078|-0.19078|-0.17578|-0.15578|-0.15078|-0.16578|-0.16578|-0.15578|-0.16578|-0.15078|-0.17078|-0.15578|-0.16078|-0.15578|-0.14078|-0.13578|-0.13078|-0.13578|-0.13078|-0.12078|-0.11578|-0.11078|-0.10578|-0.12078|-0.12078|-0.11578|-0.095778|-0.085778|-0.10078|-0.085778|-0.090778|-0.090778|-0.080778|-0.065778|-0.070778|-0.060778|-0.075778|-0.080778|-0.075778|-0.055778|-0.060778|-0.055778|-0.060778|-0.075778|-0.065778|-0.060778|-0.060778|-0.050778|-0.065778|-0.070778|-0.050778|-0.050778|-0.040778|-0.035778|-0.045778|-0.040778|
-0.025778|-0.030778|-0.045778|-0.040778|-0.030778|-0.015778|-0.015778|-0.005778|-0.020778|-0.035778|-0.035778|-0.015778|0.004222|-0.00077803|-0.010778|-0.010778|-0.00077803|-0.00077803|0.009222|-0.00077803|-0.010778|-0.005778|-0.010778|0.009222|0.019222|0.019222|0.024222|0.004222|0.019222|0.024222|0.034222|0.044222|0.044222|0.029222|0.024222|0.039222|0.064222|0.099222|0.11922|0.15922|0.17422|0.19422|0.18922|0.16922|0.16422|0.15922|0.15922|0.15422|0.15422|0.13922|0.12422|0.10922|0.099222|0.11422|0.13922|0.12422|0.10422|0.079222|0.059222|0.059222|0.064222|0.054222|0.059222|0.034222|0.019222|0.029222|0.039222|0.029222|0.019222|0.009222|0.029222|0.029222|0.044222|0.044222|0.029222|0.009222|0.014222|0.024222|0.044222|0.034222|0.024222|0.019222|0.029222|0.029222|-0.00077803|-0.035778|-0.065778|-0.080778|-0.035778|0.089222|0.26922|0.50422|0.77422|1.0942|1.3842|1.5342|1.4392|1.1742|0.88922|0.62922|0.41422|0.32922|0.32422|0.29422|0.24422|0.19922|0.18922|0.16922|0.13422|0.094222|0.064222|0.034222|0.014222|0.024222|0.024222|-0.00077803|-0.015778|-0.045778|-0.055778|-0.040778|-0.025778|-0.045778|-0.040778|-0.055778|-0.045778|-0.040778|-0.035778|-0.035778|-0.040778|-0.040778|-0.040778|-0.030778|-0.035778|-0.040778|-0.035778|-0.050778|-0.050778|-0.045778|-0.035778|-0.030778|-0.045778|-0.050778|-0.060778|-0.035778|-0.020778|-0.035778|-0.045778|-0.055778|-0.050778|-0.050778|-0.025778|-0.025778|-0.035778|-0.050778|-0.045778|-0.030778|-0.020778|-0.015778|-0.020778|-0.030778|-0.030778|-0.025778|-0.010778|0.004222|0.004222|-0.005778|-0.00077803|0.019222|0.029222|0.024222|0.024222|0.019222|0.024222|0.039222|0.054222|0.054222|0.049222|0.059222|0.069222|0.089222|0.11922|0.11422|0.10422|0.094222|0.084222|0.10422|0.14422|0.16422|0.17422|0.16922|0.16922|0.18922|0.19922|0.20422|0.21422|0.21922|0.21422|0.21422|0.21422|0.21922|0.21422|0.22422|0.23422|0.24422|0.24422|0.21422|0.20922|0.20422|0.21422|0.20922|0.19422|0.15922|0.14422|0.12422|0.10422|0.11422|0.11422|0.11922|0.099222|0.084222|0.074222|0.079222|0.074222|0.064222|0.059222|0.049222|0.039222|0.039222|0.034222|0.039222|0.029222|0.014222|0.009222|0.019222|0.029222|0.019222|0.014222|0.004222|-0.010778|0.004222|0.009222|0.009222|0.014222|0.014222|-0.00077803|0.014222|0.024222|0.019222|0.009222|-0.00077803|0.009222|0.034222|0.039222|0.039222|0.034222|0.024222|0.014222|0.024222|0.034222|0.024222|0.019222|0.014222|0.024222|0.029222|0.034222|0.029222|0.024222|0.024222|0.029222|0.049222|0.049222|0.049222|0.044222|0.039222|0.019222|0.039222|0.039222|0.049222|0.044222|0.039222|0.019222|0.034222|0.044222|0.034222|0.044222|0.044222|0.044222|0.059222|0.069222|0.069222|0.059222|0.044222|0.029222|0.054222|0.074222|0.074222|0.054222|0.039222|0.044222|0.049222|
0.034222|0.039222|0.054222|0.044222|0.039222|0.034222|0.029222|0.039222|0.069222|0.054222|0.049222|0.034222|0.039222|0.044222|0.054222|0.049222|0.034222|0.009222|0.014222|0.019222|0.049222|0.044222|0.039222|0.039222|0.049222|0.054222|0.059222|0.054222|0.034222|0.044222|0.049222|0.054222|0.049222|0.059222|0.059222|0.059222|0.079222|0.11922|0.16922|0.19422|0.19922|0.18422|0.15922|0.15922|0.16422|0.16422|0.15422|0.13422|0.12422|0.12922|0.13422|0.12922|0.12422|0.10922|0.089222|0.094222|0.099222|0.094222|0.059222|0.034222|0.024222|0.024222|0.029222|0.019222|0.024222|0.019222|0.014222|0.009222|0.004222|-0.00077803|-0.00077803|-0.005778|-0.010778|-0.00077803|0.004222|-0.00077803|-0.00077803|-0.015778|-0.030778|-0.015778|0.004222|0.004222|-0.020778|-0.040778|-0.075778|-0.10078|-0.11578|-0.12078|-0.055778|0.074222|0.26922|0.51422|0.77922|1.0942|1.3542|1.4642|1.3242|1.0592|0.78922|0.54922|0.35922|0.29422|0.28422|0.25922|0.22422|0.18422|0.16422|0.11922|0.059222|0.019222|-0.005778|-0.040778|-0.075778|-0.090778|-0.090778|-0.10078|-0.10078|-0.10578|-0.10578|-0.12078|-0.13078|-0.13578|-0.11578|-0.11078|-0.12578|-0.12578|-0.13578|-0.12578|-0.11578|-0.11078|-0.13578|-0.13578|-0.13578|-0.11078|-0.11578|-0.10578|-0.11578|-0.12578|-0.11578|-0.10578|-0.095778|-0.085778|-0.10578|-0.12078|-0.12578|-0.13078|-0.11078|-0.11578|-0.12578|-0.11078|-0.12578|-0.11578|-0.12078|-0.12078|-0.12078|-0.12078|-0.12078|-0.10578|-0.080778|-0.080778|-0.095778|-0.085778|-0.10578|-0.11578|-0.085778|-0.090778|-0.085778|-0.080778|-0.085778|-0.085778|-0.085778|-0.055778|-0.060778|-0.055778|-0.050778|-0.035778|-0.025778|-0.020778|-0.010778|-0.010778|-0.005778|-0.00077803|0.014222|0.029222|0.024222|0.024222|0.024222|0.034222|0.049222|0.059222|0.059222|0.074222|0.089222|0.11422|0.12922|0.13422|0.13422|0.12422|0.12922|0.13922|0.14422|0.15922|0.15922|0.15922|0.15922|0.15422|0.15922|0.17422|0.16422|0.13922|0.12422|0.13922|0.12422|0.11922|0.089222|0.079222|0.064222|0.064222|0.054222|0.059222|0.049222|0.029222|0.014222|-0.00077803|0.019222|-0.00077803|-0.015778|-0.030778|-0.025778|-0.025778|-0.020778|-0.025778|-0.025778|-0.045778|-0.060778|-0.045778|-0.040778|-0.045778|-0.040778|-0.045778|-0.040778|-0.035778|-0.030778|-0.025778|-0.040778|-0.040778|-0.045778|-0.025778|-0.025778|-0.025778|-0.045778|-0.045778|-0.050778|-0.045778|-0.030778|-0.035778|-0.040778|-0.050778|-0.050778|-0.035778|-0.030778|-0.020778|-0.030778|-0.035778|-0.045778|-0.045778|-0.025778|-0.015778|-0.020778|-0.035778|-0.035778|-0.025778|-0.005778|-0.00077803|-0.010778|-0.030778|-0.040778|-0.035778|-0.020778|-0.020778|-0.025778|-0.035778|-0.030778|-0.035778|-0.015778|-0.00077803|-0.010778|-0.025778|-0.040778|-0.035778|-0.020778|-0.010778|-0.010778|-0.020778|-0.025778|-0.025778|-0.020778|-0.030778|-0.045778|-0.045778|
-0.060778|-0.055778|-0.040778|-0.020778|-0.025778|-0.035778|-0.050778|-0.060778|-0.055778|-0.050778|-0.025778|-0.035778|-0.050778|-0.060778|-0.055778|-0.035778|-0.030778|-0.035778|-0.035778|-0.045778|-0.030778|-0.025778|-0.015778|-0.020778|-0.020778|-0.020778|-0.005778|0.014222|0.014222|0.004222|0.009222|0.004222|0.029222|0.039222|0.044222|0.049222|0.084222|0.099222|0.13922|0.17422|0.17922|0.16922|0.14422|0.10922|0.099222|0.10922|0.10422|0.089222|0.069222|0.064222|0.064222|0.069222|0.064222|0.049222|0.034222|0.019222|0.019222|0.019222|0.009222|-0.040778|-0.070778|-0.070778|-0.060778|-0.035778|-0.045778|-0.080778|-0.10078|-0.10078|-0.085778|-0.080778|-0.075778|-0.080778|-0.085778|-0.10078|-0.10078|-0.11078|-0.12078|-0.12578|-0.11578|-0.11078|-0.12078|-0.11078|-0.12078|-0.15078|-0.15578|-0.15078|-0.15078|-0.14078|-0.14578|-0.12078|-0.00077803|0.17422|0.35922|0.59922|0.90422|1.1492|1.2242|1.0692|0.82422|0.58422|0.37422|0.18422|0.10422|0.10922|0.10422|0.074222|0.049222|0.009222|-0.035778|-0.085778|-0.11578|-0.14578|-0.19078|-0.21578|-0.24578|-0.25078|-0.23078|-0.22078|-0.23078|-0.25078|-0.27578|-0.26578|-0.25078|-0.23078|-0.24578|-0.26078|-0.27078|-0.27078|-0.25578|-0.26078|-0.25078|-0.25078|-0.25578|-0.27078|-0.25578|-0.25578|-0.23578|-0.24078|-0.26578|-0.27078|-0.26578|-0.24578|-0.23578|-0.22078|-0.23578|-0.26578|-0.27578|-0.26078|-0.24578|-0.25078|-0.25078|-0.26578|-0.27078|-0.25578|-0.25578|-0.25578|-0.26078|-0.26578|-0.25078|-0.24578|-0.24078|-0.22078|-0.22078|-0.24078|-0.27078|-0.25578|-0.22578|-0.21078|-0.24078|-0.23578|-0.23078|-0.21578|-0.20078|-0.20578|-0.21078|-0.21078|-0.20078|-0.18578|-0.18078|-0.19078|-0.18578|-0.18578|-0.16078|-0.15078|-0.16078|-0.17578|-0.18078|-0.15578|-0.14078|-0.11578|-0.11078|-0.11078|-0.10078|-0.11578|-0.090778|-0.075778|-0.060778|-0.060778|-0.065778|-0.065778|-0.055778|-0.040778|-0.030778|-0.030778|-0.020778|-0.035778|-0.020778|-0.015778|0.004222|0.004222|-0.005778|-0.020778|-0.010778|-0.005778|-0.010778|-0.025778|-0.035778|-0.045778|-0.040778|-0.045778|-0.060778|-0.080778|-0.10078|-0.11578|-0.10578|-0.10078|-0.10078|-0.11078|-0.13078|-0.14578|-0.15078|-0.14578|-0.15578|-0.14578|-0.16078|-0.17078|-0.15578|-0.14078|-0.15578|-0.17078|-0.18078|-0.18578|-0.18078|-0.16078|-0.17078|-0.16578|-0.16578|-0.16578|-0.14078|-0.14578|-0.14578|-0.14078|-0.15578|-0.16578|-0.16078|-0.15578|-0.14078|-0.13578|-0.12578|-0.13578|-0.14578|-0.12578|-0.12578|-0.12078|-0.11578|-0.12078|-0.095778|-0.10078|-0.10578|-0.10578|-0.10078|-0.10078|-0.080778|-0.080778|-0.080778|-0.095778|-0.085778|-0.080778|-0.075778|-0.080778|-0.075778|-0.080778|-0.080778|-0.075778|-0.080778|-0.060778|-0.060778|-0.075778|-0.075778|-0.070778|-0.070778|-0.060778|-0.045778|-0.045778|-0.050778|-0.060778|-0.055778|-0.050778|-0.065778|-0.070778|
-0.070778|-0.060778|-0.050778|-0.040778|-0.050778|-0.065778|-0.080778|-0.070778|-0.055778|-0.045778|-0.045778|-0.050778|-0.060778|-0.075778|-0.060778|-0.045778|-0.040778|-0.065778|-0.060778|-0.045778|-0.035778|-0.050778|-0.040778|-0.040778|-0.045778|-0.030778|-0.020778|-0.020778|-0.010778|-0.020778|-0.020778|-0.005778|0.004222|-0.00077803|-0.00077803|0.009222|0.034222|0.059222|0.084222|0.10422|0.14922|0.15422|0.12422|0.12422|0.11422|0.12922|0.11922|0.10422|0.084222|0.079222|0.084222|0.084222|0.074222|0.079222|0.074222|0.064222|0.059222|0.054222|0.034222|0.014222|-0.005778|-0.015778|-0.010778|-0.005778|-0.010778|-0.020778|-0.030778|-0.025778|-0.020778|-0.015778|-0.025778|-0.035778|-0.035778|-0.045778|-0.005778|-0.020778|-0.030778|-0.035778|-0.035778|-0.015778|-0.015778|-0.010778|-0.015778|-0.040778|-0.065778|-0.080778|-0.10078|-0.10578|-0.075778|-0.010778|0.16422|0.38422|0.61922|0.91422|1.2242|1.4192|1.3942|1.1842|0.91422|0.66922|0.44422|0.30422|0.26922|0.25422|0.20922|0.17922|0.15422|0.11422|0.079222|0.064222|0.029222|-0.00077803|-0.040778|-0.025778|-0.040778|-0.045778|-0.035778|-0.050778|-0.045778|-0.055778|-0.075778|-0.065778|-0.060778|-0.050778|-0.050778|-0.050778|-0.045778|-0.050778|-0.050778|-0.050778|-0.050778|-0.055778|-0.055778|-0.070778|-0.065778|-0.045778|-0.045778|-0.040778|-0.045778|-0.055778|-0.040778|-0.040778|-0.040778|-0.060778|-0.075778|-0.055778|-0.040778|-0.035778|-0.035778|-0.035778|-0.035778|-0.040778|-0.035778|-0.030778|-0.025778|-0.030778|-0.045778|-0.040778|-0.020778|-0.010778|-0.015778|-0.030778|-0.030778|-0.010778|-0.00077803|-0.005778|-0.010778|-0.005778|-0.010778|0.004222|0.034222|0.034222|0.034222|0.019222|0.024222|0.049222|0.054222|0.064222|0.079222|0.069222|0.079222|0.084222|0.099222|0.10422|0.11922|0.12922|0.12422|0.14922|0.14422|0.15422|0.16422|0.16922|0.16422|0.19422|0.20922|0.22422|0.23422|0.21422|0.21922|0.22922|0.23922|0.25422|0.25422|0.24922|0.24422|0.25422|0.25422|0.25422|0.24922|0.21922|0.21922|0.22422|0.23922|0.23422|0.20922|0.18422|0.15922|0.15922|0.15922|0.17422|0.16922|0.14922|0.11922|0.084222|0.059222|0.039222|0.049222|0.059222|0.064222|0.059222|0.059222|0.064222|0.059222|0.069222|0.054222|0.064222|0.069222|0.069222|0.059222|0.059222|0.059222|0.064222|0.064222|0.059222|0.054222|0.054222|0.054222|0.059222|0.064222|0.074222|0.064222|0.064222|0.059222|0.084222|0.089222|0.10422|0.094222|0.069222|0.064222|0.069222|0.089222|0.084222|0.089222|0.084222|0.089222|0.079222|0.084222|0.094222|0.084222|0.084222|0.074222|0.079222|0.079222|0.084222|0.089222|0.10422|0.089222|0.084222|0.10422|0.11922|0.10922|0.10422|0.084222|0.084222|0.089222|0.089222|0.089222|0.069222|0.069222|0.079222|0.079222|0.079222|0.074222|0.074222|0.064222|0.074222|0.074222|0.084222|0.084222|0.069222|
0.069222|0.064222|0.079222|0.089222|0.089222|0.079222|0.064222|0.054222|0.069222|0.084222|0.079222|0.064222|0.069222|0.069222|0.079222|0.084222|0.079222|0.084222|0.079222|0.059222|0.064222|0.064222|0.069222|0.064222|0.054222|0.044222|0.059222|0.079222|0.079222|0.089222|0.089222|0.084222|0.089222|0.094222|0.11422|0.11922|0.11422|0.10422|0.11922|0.12922|0.13422|0.14422|0.16422|0.16922|0.22422|0.25422|0.25422|0.22422|0.19922|0.20422|0.21922|0.20922|0.19422|0.17922|0.17422|0.16922|0.17422|0.16922|0.16422|0.16422|0.13922|0.10922|0.10422|0.079222|0.074222|0.069222|0.069222|0.064222|0.069222|0.054222|0.054222|0.054222|0.034222|0.029222|0.029222|0.039222|0.049222|0.049222|0.039222|0.019222|0.019222|0.024222|0.034222|0.034222|0.019222|-0.020778|-0.040778|-0.060778|-0.045778|0.004222|0.13422|0.33422|0.59922|0.91422|1.2642|1.4942|1.4842|1.2042|0.88922|0.63922|0.43922|0.35922|0.35422|0.33422|0.29922|0.26922|0.21922|0.16922|0.11422|0.044222|0.019222|-0.005778|-0.005778|-0.005778|-0.015778|-0.040778|-0.035778|-0.030778|-0.030778|-0.030778|-0.045778|-0.055778|-0.055778|-0.055778|-0.045778|-0.050778|-0.040778|-0.060778|-0.050778|-0.050778|-0.055778|-0.050778|-0.060778|-0.060778|-0.040778|-0.020778|-0.025778|-0.020778|-0.025778|-0.025778|-0.035778|-0.045778|-0.050778|-0.045778|-0.030778|-0.050778|-0.060778|-0.065778|-0.055778|-0.055778|-0.055778|-0.070778|-0.060778|-0.055778|-0.050778|-0.030778|-0.045778|-0.050778|-0.040778|-0.045778|-0.025778|-0.020778|-0.020778|-0.020778|-0.030778|-0.015778|-0.00077803|-0.005778|-0.005778|-0.005778|0.014222|0.024222|0.029222|0.024222|0.019222|0.029222|0.044222|0.074222|0.069222|0.074222|0.074222|0.079222|0.10422|0.12422|0.13922|0.14922|0.11922|0.13422|0.15922|0.16922|0.20422|0.20422|0.19922|0.18922|0.18922|0.21922|0.22422|0.23422|0.23922|0.23422|0.24922|0.25422|0.24422|0.24422|0.23422|0.21922|0.20922|0.21422|0.22422|0.21422|0.19922|0.17922|0.16922|0.15922|0.16422|0.14422|0.10922|0.10422|0.10922|0.10922|0.11922|0.094222|0.079222|0.059222|0.059222|0.069222|0.069222|0.059222|0.064222|0.049222|0.049222|0.049222|0.044222|0.049222|0.049222|0.039222|0.049222|0.054222|0.059222|0.044222|0.034222|0.034222|0.044222|0.054222|0.049222|0.039222|0.044222|0.044222|0.054222|0.069222|0.059222|0.064222|0.054222|0.049222|0.049222|0.069222|0.079222|0.074222|0.074222|0.069222|0.064222|0.064222|0.069222|0.059222|0.054222|0.049222|0.054222|0.054222|0.064222|0.059222|0.059222|0.049222|0.059222|0.069222|0.069222|0.064222|0.044222|0.044222|0.054222|0.064222|0.064222|0.059222|0.064222|0.054222|0.054222|0.059222|0.054222|0.059222|0.054222|0.049222|0.059222|0.054222|0.059222|0.059222|0.069222|0.064222|0.064222|0.064222|0.069222|0.059222|
0.064222|0.074222|0.079222|0.079222|0.084222|0.074222|0.064222|0.064222|0.069222|0.054222|0.044222|0.034222|0.044222|0.059222|0.064222|0.069222|0.064222|0.039222|0.039222|0.054222|0.049222|0.049222|0.049222|0.044222|0.059222|0.079222|0.074222|0.039222|0.044222|0.034222|0.059222|0.074222|0.079222|0.064222|0.064222|0.044222|0.059222|0.084222|0.099222|0.084222|0.079222|0.089222|0.11922|0.14922|0.17922|0.20922|0.21922|0.19922|0.17922|0.18422|0.18922|0.16922|0.15922|0.13922|0.13422|0.13422|0.13422|0.12922|0.12422|0.10422|0.084222|0.074222|0.059222|0.059222|0.054222|0.044222|0.029222|0.024222|0.019222|0.019222|0.004222|-0.00077803|-0.00077803|-0.00077803|0.009222|-0.005778|-0.010778|-0.015778|0.004222|-0.00077803|0.009222|0.004222|-0.00077803|-0.015778|-0.020778|-0.035778|-0.060778|-0.075778|-0.080778|-0.035778|0.13922|0.32922|0.56422|0.86422|1.2042|1.4442|1.4642|1.2392|0.93422|0.64422|0.41922|0.30922|0.30922|0.28922|0.26922|0.22922|0.18422|0.13422|0.099222|0.059222|0.039222|-0.015778|-0.045778|-0.055778|-0.065778|-0.060778|-0.045778|-0.055778|-0.065778|-0.085778|-0.085778|-0.085778|-0.065778|-0.080778|-0.080778|-0.090778|-0.10078|-0.090778|-0.070778|-0.075778|-0.090778|-0.10578|-0.10578|-0.095778|-0.080778|-0.090778|-0.085778|-0.095778|-0.080778|-0.090778|-0.075778|-0.080778|-0.090778|-0.095778|-0.085778|-0.085778|-0.080778|-0.095778|-0.090778|-0.10078|-0.085778|-0.080778|-0.070778|-0.080778|-0.080778|-0.11078|-0.090778|-0.085778|-0.060778|-0.065778|-0.070778|-0.085778|-0.070778|-0.065778|-0.050778|-0.050778|-0.060778|-0.060778|-0.045778|-0.045778|-0.035778|-0.040778|-0.025778|-0.025778|-0.015778|-0.005778|0.009222|0.014222|0.009222|0.004222|0.024222|0.034222|0.059222|0.054222|0.054222|0.054222|0.074222|0.089222|0.10422|0.12922|0.13922|0.13922|0.14422|0.13922|0.13922|0.14422|0.15422|0.15422|0.15422|0.16922|0.17922|0.17422|0.17922|0.15922|0.15422|0.16922|0.17422|0.17922|0.16422|0.14422|0.12422|0.12422|0.12422|0.10922|0.079222|0.069222|0.064222|0.069222|0.049222|0.034222|0.034222|-0.00077803|0.004222|0.014222|0.019222|0.009222|-0.00077803|-0.005778|-0.005778|-0.005778|-0.00077803|-0.010778|-0.020778|-0.030778|-0.030778|-0.020778|-0.005778|-0.005778|-0.015778|-0.025778|-0.025778|-0.010778|-0.010778|-0.015778|-0.020778|-0.025778|-0.015778|-0.015778|-0.005778|-0.005778|-0.020778|-0.025778|-0.025778|-0.010778|0.004222|-0.00077803|-0.00077803|-0.020778|-0.025778|-0.015778|-0.00077803|-0.030778|-0.030778|-0.030778|-0.030778|-0.035778|-0.015778|-0.005778|-0.010778|-0.025778|-0.020778|-0.020778|-0.005778|-0.020778|-0.025778|-0.030778|-0.030778|-0.030778|-0.010778|-0.005778|-0.005778|-0.020778|-0.025778|-0.025778|-0.020778|-0.020778|-0.025778|-0.040778|-0.040778|-0.025778|-0.015778|-0.010778|-0.020778|-0.040778|-0.035778|-0.015778|-0.015778|-0.015778|-0.030778|-0.025778|
-0.035778|-0.020778|-0.010778|-0.020778|-0.035778|-0.030778|-0.025778|-0.015778|-0.010778|-0.025778|-0.050778|-0.045778|-0.040778|-0.030778|-0.035778|-0.045778|-0.055778|-0.055778|-0.030778|-0.015778|-0.025778|-0.025778|-0.030778|-0.020778|-0.020778|-0.015778|-0.020778|-0.015778|-0.025778|-0.005778|0.009222|0.009222|0.004222|-0.00077803|-0.020778|-0.010778|0.009222|0.034222|0.059222|0.074222|0.10922|0.12922|0.13422|0.12422|0.11422|0.099222|0.094222|0.084222|0.084222|0.079222|0.074222|0.054222|0.054222|0.049222|0.049222|0.044222|0.024222|0.024222|0.009222|-0.010778|-0.030778|-0.035778|-0.050778|-0.055778|-0.065778|-0.055778|-0.045778|-0.050778|-0.055778|-0.060778|-0.080778|-0.075778|-0.070778|-0.070778|-0.070778|-0.10078|-0.095778|-0.10578|-0.085778|-0.075778|-0.075778|-0.085778|-0.085778|-0.10078|-0.11078|-0.13578|-0.15578|-0.17078|-0.16078|-0.040778|0.14422|0.36922|0.62922|0.93922|1.2192|1.3442|1.2392|0.96422|0.66422|0.40422|0.23922|0.20422|0.19922|0.17422|0.13422|0.099222|0.049222|-0.00077803|-0.035778|-0.075778|-0.10578|-0.13078|-0.15078|-0.16078|-0.15078|-0.15078|-0.17078|-0.18078|-0.18578|-0.18578|-0.18578|-0.19078|-0.19578|-0.18578|-0.20078|-0.20078|-0.19578|-0.18578|-0.18578|-0.19078|-0.18578|-0.19078|-0.18578|-0.18578|-0.18078|-0.19078|-0.19578|-0.20078|-0.20078|-0.18078|-0.19078|-0.20578|-0.20578|-0.20578|-0.20078|-0.18578|-0.15078|-0.17078|-0.17578|-0.19078|-0.18578|-0.18078|-0.19078|-0.20078|-0.20578|-0.19578|-0.18078|-0.16578|-0.18078|-0.20078|-0.20578|-0.17078|-0.17078|-0.15578|-0.15578|-0.16578|-0.17078|-0.14578|-0.15578|-0.15578|-0.13578|-0.15078|-0.15078|-0.14578|-0.12078|-0.11078|-0.11078|-0.11078|-0.12078|-0.10078|-0.090778|-0.070778|-0.075778|-0.070778|-0.075778|-0.060778|-0.040778|-0.025778|-0.020778|-0.015778|-0.015778|-0.005778|0.014222|0.024222|0.034222|0.029222|0.024222|0.029222|0.049222|0.069222|0.069222|0.059222|0.064222|0.064222|0.079222|0.079222|0.084222|0.074222|0.064222|0.074222|0.064222|0.059222|0.044222|0.039222|0.019222|0.009222|0.009222|-0.00077803|-0.015778|-0.020778|-0.050778|-0.050778|-0.050778|-0.050778|-0.065778|-0.080778|-0.085778|-0.095778|-0.080778|-0.085778|-0.090778|-0.11578|-0.12078|-0.12078|-0.12078|-0.11078|-0.10578|-0.10578|-0.12078|-0.11078|-0.11578|-0.095778|-0.10078|-0.11078|-0.12578|-0.12578|-0.10578|-0.080778|-0.095778|-0.11078|-0.11578|-0.11078|-0.095778|-0.085778|-0.10078|-0.10578|-0.12578|-0.12078|-0.10078|-0.090778|-0.090778|-0.10078|-0.13078|-0.11078|-0.10578|-0.095778|-0.085778|-0.080778|-0.10578|-0.090778|-0.090778|-0.085778|-0.090778|-0.095778|-0.095778|-0.090778|-0.080778|-0.080778|-0.085778|-0.095778|-0.090778|-0.10078|-0.085778|-0.080778|-0.085778|-0.095778|-0.11578|-0.11078|-0.10078|-0.090778|-0.095778|-0.11078|-0.11578|-0.10578|-0.090778|-0.085778|-0.10078|-0.090778|-0.10078|-0.095778|
-0.12078|-0.12078|-0.12578|-0.11578|-0.10078|-0.095778|-0.090778|-0.10078|-0.11578|-0.11078|-0.11078|-0.10578|-0.10578|-0.11078|-0.12078|-0.12078|-0.10578|-0.090778|-0.090778|-0.11078|-0.12078|-0.11578|-0.11078|-0.10578|-0.11078|-0.12078|-0.13078|-0.12578|-0.11578|-0.10078|-0.095778|-0.095778|-0.10078|-0.10078|-0.085778|-0.065778|-0.050778|-0.040778|-0.025778|-0.005778|0.014222|0.054222|0.064222|0.084222|0.074222|0.074222|0.059222|0.069222|0.064222|0.044222|0.029222|0.029222|0.029222|0.034222|0.019222|-0.00077803|-0.00077803|-0.005778|-0.015778|-0.020778|-0.035778|-0.060778|-0.080778|-0.10078|-0.095778|-0.10578|-0.10578|-0.11578|-0.11578|-0.12078|-0.10078|-0.095778|-0.10078|-0.11578|-0.13578|-0.11578|-0.12078|-0.11578|-0.11578|-0.13078|-0.13578|-0.14078|-0.14078|-0.14078|-0.15078|-0.18078|-0.20078|-0.22078|-0.20578|-0.10078|0.069222|0.27922|0.51922|0.83422|1.1242|1.2342|1.1242|0.84922|0.58422|0.35922|0.19922|0.14422|0.13922|0.094222|0.039222|0.014222|-0.005778|-0.020778|-0.040778|-0.080778|-0.14078|-0.17578|-0.18078|-0.16578|-0.19078|-0.20578|-0.23578|-0.23578|-0.23578|-0.22578|-0.22578|-0.23578|-0.24078|-0.25078|-0.24078|-0.23578|-0.24078|-0.24578|-0.25078|-0.24078|-0.23078|-0.22578|-0.24078|-0.24078|-0.24578|-0.22578|-0.21578|-0.19578|-0.20578|-0.23078|-0.23078|-0.21578|-0.20578|-0.19578|-0.19078|-0.20578|-0.22078|-0.22078|-0.20578|-0.19578|-0.20078|-0.21078|-0.22078|-0.21578|-0.21578|-0.19578|-0.19078|-0.20078|-0.19578|-0.20578|-0.18078|-0.17078|-0.18078|-0.19578|-0.19078|-0.19078|-0.16078|-0.15578|-0.15078|-0.16578|-0.16578|-0.14578|-0.13078|-0.12578|-0.13578|-0.14578|-0.14078|-0.12078|-0.11578|-0.10078|-0.090778|-0.080778|-0.090778|-0.090778|-0.085778|-0.055778|-0.040778|-0.035778|-0.045778|-0.025778|-0.020778|-0.005778|-0.00077803|-0.00077803|0.004222|0.014222|0.029222|0.054222|0.064222|0.069222|0.059222|0.059222|0.074222|0.079222|0.089222|0.084222|0.084222|0.079222|0.064222|0.084222|0.089222|0.069222|0.039222|0.039222|0.034222|0.054222|0.034222|0.024222|0.014222|-0.00077803|-0.00077803|0.009222|-0.015778|-0.035778|-0.070778|-0.065778|-0.055778|-0.060778|-0.065778|-0.070778|-0.10078|-0.095778|-0.090778|-0.090778|-0.090778|-0.10578|-0.11578|-0.10078|-0.10078|-0.095778|-0.090778|-0.12078|-0.12578|-0.12078|-0.10578|-0.10078|-0.10078|-0.10578|-0.11578|-0.12078|-0.11078|-0.085778|-0.085778|-0.090778|-0.10578|-0.11078|-0.10578|-0.095778|-0.095778|-0.090778|-0.11078|-0.095778|-0.090778|-0.090778|-0.090778|-0.10078|-0.10578|-0.090778|-0.085778|-0.070778|-0.075778|-0.075778|-0.085778|-0.085778|-0.065778|-0.050778|-0.065778|-0.070778|-0.075778|-0.070778|-0.070778|-0.060778|-0.055778|-0.070778|-0.080778|-0.085778|-0.070778|-0.070778|-0.070778|-0.090778|-0.10078|-0.090778|-0.080778|-0.080778|-0.075778|-0.090778|-0.085778|-0.085778|-0.085778|-0.080778|
-0.075778|-0.085778|-0.090778|-0.090778|-0.095778|-0.070778|-0.080778|-0.075778|-0.075778|-0.075778|-0.085778|-0.090778|-0.085778|-0.070778|-0.080778|-0.090778|-0.10078|-0.090778|-0.090778|-0.080778|-0.090778|-0.095778|-0.085778|-0.080778|-0.075778|-0.070778|-0.075778|-0.085778|-0.080778|-0.075778|-0.060778|-0.060778|-0.060778|-0.070778|-0.060778|-0.045778|-0.045778|-0.040778|-0.025778|-0.010778|0.039222|0.084222|0.099222|0.10922|0.094222|0.069222|0.074222|0.089222|0.079222|0.054222|0.039222|0.039222|0.034222|0.039222|0.044222|0.034222|0.014222|-0.010778|-0.035778|-0.045778|-0.050778|-0.050778|-0.060778|-0.080778|-0.080778|-0.065778|-0.070778|-0.075778|-0.085778|-0.095778|-0.10078|-0.095778|-0.10078|-0.090778|-0.10078|-0.10578|-0.11078|-0.10578|-0.095778|-0.095778|-0.11078|-0.13078|-0.10578|-0.10578|-0.12078|-0.14078|-0.17578|-0.19078|-0.16078|-0.065778|0.089222|0.27422|0.49422|0.77922|1.0892|1.2742|1.1842|0.89922|0.61422|0.37922|0.24422|0.19422|0.19422|0.15922|0.11922|0.094222|0.054222|0.024222|-0.010778|-0.080778|-0.12078|-0.14078|-0.15078|-0.16578|-0.17078|-0.17578|-0.18078|-0.19578|-0.21078|-0.21078|-0.20078|-0.20078|-0.21078|-0.21578|-0.22078|-0.21078|-0.20578|-0.19578|-0.20078|-0.21078|-0.22578|-0.21078|-0.21078|-0.20578|-0.21578|-0.22078|-0.22078|-0.20578|-0.21578|-0.22078|-0.21078|-0.21578|-0.21578|-0.20578|-0.19578|-0.19078|-0.20078|-0.21078|-0.20578|-0.20578|-0.20578|-0.20578|-0.22078|-0.21578|-0.21578|-0.21078|-0.20078|-0.19078|-0.19078|-0.21078|-0.20578|-0.18578|-0.18078|-0.17078|-0.19078|-0.18578|-0.18078|-0.16578|-0.15078|-0.14578|-0.15578|-0.17078|-0.15578|-0.14078|-0.13078|-0.13578|-0.14578|-0.12578|-0.11078|-0.10078|-0.075778|-0.085778|-0.080778|-0.090778|-0.065778|-0.060778|-0.035778|-0.025778|-0.015778|-0.020778|-0.020778|0.004222|0.014222|0.024222|0.019222|0.024222|0.024222|0.039222|0.059222|0.069222|0.069222|0.069222|0.064222|0.074222|0.084222|0.089222|0.069222|0.069222|0.069222|0.059222|0.064222|0.049222|0.039222|0.034222|0.024222|0.009222|0.004222|0.004222|-0.015778|-0.025778|-0.035778|-0.030778|-0.045778|-0.055778|-0.065778|-0.080778|-0.065778|-0.10078|-0.075778|-0.085778|-0.095778|-0.090778|-0.10578|-0.095778|-0.10578|-0.10578|-0.10578|-0.11578|-0.11078|-0.11578|-0.10078|-0.11078|-0.10578|-0.11578|-0.11078|-0.10078|-0.085778|-0.095778|-0.11078|-0.11578|-0.11078|-0.090778|-0.090778|-0.090778|-0.10078|-0.11078|-0.10078|-0.095778|-0.085778|-0.10078|-0.11078|-0.11078|-0.10578|-0.10078|-0.070778|-0.075778|-0.075778|-0.095778|-0.10578|-0.095778|-0.080778|-0.080778|-0.090778|-0.10078|-0.10578|-0.090778|-0.075778|-0.075778|-0.090778|-0.090778|-0.085778|-0.085778|-0.085778|-0.10578|-0.10078|-0.10078|-0.095778|-0.080778|-0.070778|-0.075778|-0.090778|-0.090778|-0.090778|-0.085778|-0.075778|-0.085778|-0.085778|-0.095778|-0.095778|-0.085778|
-0.075778|-0.080778|-0.095778|-0.10078|-0.090778|-0.075778|-0.075778|-0.075778|-0.085778|-0.090778|-0.085778|-0.070778|-0.070778|-0.070778|-0.090778|-0.095778|-0.075778|-0.065778|-0.075778|-0.085778|-0.090778|-0.10078|-0.080778|-0.065778|-0.065778|-0.065778|-0.080778|-0.095778|-0.080778|-0.070778|-0.055778|-0.060778|-0.060778|-0.065778|-0.050778|-0.040778|-0.030778|-0.040778|-0.050778|-0.035778|-0.005778|0.044222|0.079222|0.099222|0.089222|0.074222|0.059222|0.089222|0.069222|0.044222|0.034222|0.024222|0.039222|0.044222|0.019222|-0.005778|-0.015778|-0.025778|-0.015778|-0.020778|-0.065778|-0.085778|-0.10078|-0.10078|-0.10078|-0.10078|-0.11578|-0.12578|-0.12078|-0.12078|-0.12078|-0.11078|-0.12578|-0.14078|-0.14078|-0.16078|-0.14578|-0.13578|-0.16578|-0.16078|-0.15578|-0.15578|-0.14578|-0.14078|-0.15078|-0.16578|-0.18578|-0.21578|-0.22078|-0.20078|-0.14078|-0.00077803|0.20422|0.44422|0.76422|1.0642|1.1842|1.0592|0.74422|0.47422|0.23922|0.10922|0.044222|0.009222|-0.040778|-0.035778|-0.030778|-0.045778|-0.095778|-0.12578|-0.17578|-0.20578|-0.22078|-0.21578|-0.21578|-0.21578|-0.22578|-0.23078|-0.23578|-0.23578|-0.24578|-0.26078|-0.26078|-0.25578|-0.25078|-0.24078|-0.23078|-0.23578|-0.25078|-0.26078|-0.25078|-0.23578|-0.24578|-0.25078|-0.25578|-0.25078|-0.23578|-0.23078|-0.25578|-0.24578|-0.26078|-0.26078|-0.24578|-0.22078|-0.23578|-0.26578|-0.27078|-0.24578|-0.22578|-0.22078|-0.23578|-0.24078|-0.23578|-0.22578|-0.22578|-0.23078|-0.22578|-0.23578|-0.23578|-0.23078|-0.22078|-0.20578|-0.20078|-0.21078|-0.21578|-0.22078|-0.20578|-0.19578|-0.20078|-0.21078|-0.19578|-0.19578|-0.18578|-0.17078|-0.15578|-0.16578|-0.17078|-0.17078|-0.15078|-0.12078|-0.12578|-0.12578|-0.12078|-0.11078|-0.10078|-0.080778|-0.085778|-0.080778|-0.075778|-0.070778|-0.050778|-0.030778|-0.030778|-0.035778|-0.035778|-0.035778|-0.00077803|0.019222|0.019222|0.009222|0.014222|0.024222|0.034222|0.049222|0.029222|0.029222|0.024222|0.019222|0.014222|0.029222|0.004222|0.019222|0.009222|-0.015778|-0.025778|-0.025778|-0.025778|-0.030778|-0.050778|-0.065778|-0.075778|-0.065778|-0.080778|-0.085778|-0.095778|-0.10578|-0.11078|-0.11578|-0.12578|-0.13578|-0.13578|-0.13578|-0.13578|-0.12578|-0.12078|-0.12078|-0.13078|-0.14078|-0.11578|-0.10078|-0.11578|-0.13078|-0.13078|-0.12578|-0.11578|-0.11578|-0.13078|-0.12578|-0.13078|-0.12578|-0.13078|-0.11578|-0.13078|-0.13578|-0.13578|-0.13078|-0.12078|-0.10578|-0.10078|-0.11578|-0.12078|-0.13078|-0.12078|-0.12578|-0.13078|-0.14078|-0.12578|-0.11578|-0.095778|-0.080778|-0.10078|-0.10578|-0.12578|-0.12578|-0.11078|-0.10578|-0.11578|-0.12078|-0.11078|-0.11078|-0.10578|-0.10578|-0.12078|-0.12578|-0.11578|-0.11578|-0.11078|-0.12078|-0.14078|-0.14578|-0.12578|-0.12578|-0.12578|-0.12078|-0.13078|-0.13078|-0.13578|-0.14578|-0.14578|-0.12078|
-0.13078|-0.12578|-0.12578|-0.12578|-0.14578|-0.12578|-0.12578|-0.11578|-0.11578|-0.11578|-0.12578|-0.12578|-0.13078|-0.12578|-0.11578|-0.11578|-0.12578|-0.13578|-0.15078|-0.13078|-0.12078|-0.10578|-0.10578|-0.13078|-0.14078|-0.12578|-0.10078|-0.10578|-0.11078|-0.10578|-0.11078|-0.090778|-0.085778|-0.090778|-0.080778|-0.070778|-0.075778|-0.060778|-0.030778|-0.010778|-0.010778|0.029222|0.044222|0.059222|0.054222|0.039222|0.029222|0.019222|0.009222|0.004222|-0.00077803|-0.015778|-0.030778|-0.045778|-0.045778|-0.030778|-0.025778|-0.055778|-0.050778|-0.070778|-0.095778|-0.10078|-0.095778|-0.10078|-0.12578|-0.14078|-0.15578|-0.14578|-0.12578|-0.12078|-0.12078|-0.13578|-0.15578|-0.14578|-0.12578|-0.13578|-0.14578|-0.14578|-0.14078|-0.12578|-0.12078|-0.14078|-0.15078|-0.14078|-0.14578|-0.15078|-0.18078|-0.20078|-0.21078|-0.16578|-0.025778|0.20422|0.48922|0.79422|1.1392|1.3842|1.3892|1.1592|0.85922|0.53422|0.25422|0.10922|0.039222|-0.010778|-0.070778|-0.10578|-0.10578|-0.11578|-0.13578|-0.14578|-0.17078|-0.19078|-0.22078|-0.23578|-0.22078|-0.21578|-0.22078|-0.22578|-0.23078|-0.24578|-0.24578|-0.23578|-0.21578|-0.22578|-0.22578|-0.25078|-0.24078|-0.24078|-0.22578|-0.23078|-0.24578|-0.24578|-0.24578|-0.23078|-0.22578|-0.22078|-0.21578|-0.22578|-0.23078|-0.21578|-0.20578|-0.19578|-0.21578|-0.21578|-0.22078|-0.20578|-0.19578|-0.19578|-0.21078|-0.21078|-0.20078|-0.20078|-0.18578|-0.19078|-0.18078|-0.18578|-0.18578|-0.18078|-0.16578|-0.16578|-0.16578|-0.18078|-0.18578|-0.17078|-0.14578|-0.14078|-0.14578|-0.14078|-0.14078|-0.13578|-0.11578|-0.10578|-0.11578|-0.11078|-0.11078|-0.095778|-0.070778|-0.055778|-0.050778|-0.050778|-0.050778|-0.025778|-0.015778|-0.00077803|0.009222|0.014222|0.009222|0.024222|0.049222|0.059222|0.059222|0.064222|0.064222|0.079222|0.10422|0.11922|0.10422|0.094222|0.084222|0.094222|0.11422|0.11422|0.11422|0.10422|0.079222|0.084222|0.084222|0.069222|0.059222|0.059222|0.044222|0.039222|0.039222|0.019222|-0.005778|-0.015778|-0.025778|-0.020778|-0.010778|-0.020778|-0.030778|-0.050778|-0.065778|-0.055778|-0.040778|-0.060778|-0.060778|-0.080778|-0.080778|-0.065778|-0.055778|-0.060778|-0.070778|-0.080778|-0.095778|-0.075778|-0.065778|-0.070778|-0.075778|-0.065778|-0.075778|-0.070778|-0.060778|-0.055778|-0.060778|-0.060778|-0.070778|-0.040778|-0.045778|-0.045778|-0.050778|-0.050778|-0.045778|-0.050778|-0.035778|-0.040778|-0.040778|-0.050778|-0.040778|-0.020778|-0.025778|-0.030778|-0.025778|-0.025778|-0.050778|-0.030778|-0.010778|-0.015778|-0.025778|-0.040778|-0.055778|-0.040778|-0.015778|-0.020778|-0.035778|-0.035778|-0.035778|-0.040778|-0.030778|-0.035778|-0.025778|-0.025778|-0.030778|-0.020778|-0.015778|-0.020778|-0.025778|-0.035778|-0.035778|-0.020778|-0.005778|-0.015778|-0.030778|-0.030778|-0.035778|-0.020778|-0.020778|-0.020778|-0.020778|-0.035778|
-0.030778|-0.025778|-0.025778|-0.025778|-0.025778|-0.040778|-0.015778|-0.005778|-0.010778|-0.025778|-0.020778|-0.030778|-0.030778|-0.010778|-0.015778|-0.015778|-0.025778|-0.020778|-0.020778|-0.010778|-0.015778|-0.010778|-0.020778|-0.030778|-0.010778|0.004222|-0.00077803|-0.010778|-0.015778|-0.005778|0.004222|0.024222|0.014222|0.009222|0.009222|0.014222|0.024222|0.039222|0.034222|0.039222|0.059222|0.079222|0.11922|0.15922|0.17422|0.17422|0.15922|0.15422|0.14922|0.15422|0.14422|0.11922|0.10422|0.10422|0.10422|0.10422|0.12422|0.11422|0.089222|0.074222|0.079222|0.064222|0.034222|0.024222|0.024222|0.004222|0.009222|0.019222|0.014222|-0.00077803|-0.020778|-0.025778|-0.020778|-0.005778|-0.005778|-0.010778|-0.025778|-0.025778|-0.025778|-0.015778|-0.010778|-0.025778|-0.030778|-0.020778|-0.020778|-0.040778|-0.080778|-0.10578|-0.11078|-0.080778|0.049222|0.25422|0.50422|0.80922|1.1342|1.4292|1.5492|1.3842|1.0892|0.77922|0.51922|0.36922|0.33922|0.32922|0.27922|0.23422|0.18422|0.13922|0.094222|0.044222|-0.005778|-0.050778|-0.080778|-0.080778|-0.075778|-0.070778|-0.075778|-0.085778|-0.10078|-0.12078|-0.11078|-0.10078|-0.10078|-0.11578|-0.13078|-0.12078|-0.12078|-0.11078|-0.12078|-0.11578|-0.12078|-0.13078|-0.11578|-0.11078|-0.10078|-0.11078|-0.13078|-0.10578|-0.10578|-0.10578|-0.10578|-0.11078|-0.11578|-0.11078|-0.10578|-0.085778|-0.095778|-0.10578|-0.12578|-0.12578|-0.11578|-0.10078|-0.11078|-0.12578|-0.11078|-0.095778|-0.085778|-0.085778|-0.085778|-0.090778|-0.11078|-0.10578|-0.085778|-0.075778|-0.070778|-0.075778|-0.090778|-0.085778|-0.075778|-0.050778|-0.040778|-0.045778|-0.050778|-0.040778|-0.020778|-0.005778|-0.00077803|-0.00077803|0.014222|0.029222|0.034222|0.054222|0.074222|0.069222|0.074222|0.089222|0.10422|0.12922|0.12922|0.11922|0.10922|0.11922|0.13922|0.17422|0.16422|0.16422|0.16422|0.15922|0.18422|0.19922|0.19922|0.18422|0.16422|0.16422|0.18922|0.19922|0.18422|0.15922|0.13422|0.12922|0.13422|0.10922|0.10422|0.084222|0.059222|0.044222|0.059222|0.059222|0.024222|0.009222|0.004222|-0.00077803|0.009222|0.014222|-0.00077803|-0.010778|-0.035778|-0.030778|-0.020778|-0.015778|-0.020778|-0.030778|-0.030778|-0.045778|-0.030778|-0.030778|-0.030778|-0.035778|-0.030778|-0.040778|-0.005778|-0.015778|-0.020778|-0.025778|-0.035778|-0.035778|-0.030778|-0.030778|-0.030778|-0.035778|-0.050778|-0.040778|-0.020778|-0.005778|-0.015778|-0.035778|-0.030778|-0.030778|-0.025778|-0.010778|-0.005778|-0.025778|-0.020778|-0.020778|-0.015778|-0.010778|-0.015778|-0.015778|-0.025778|-0.025778|-0.015778|-0.020778|-0.025778|-0.035778|-0.035778|-0.030778|-0.030778|-0.015778|-0.010778|-0.010778|-0.035778|-0.030778|-0.025778|-0.015778|-0.010778|-0.030778|-0.040778|-0.055778|-0.025778|-0.010778|-0.015778|-0.025778|-0.035778|-0.035778|-0.020778|-0.010778|-0.015778|-0.015778|-0.020778|-0.030778|
-0.045778|-0.030778|-0.025778|-0.020778|-0.030778|-0.035778|-0.035778|-0.020778|-0.010778|-0.015778|-0.020778|-0.030778|-0.035778|-0.020778|-0.030778|-0.015778|-0.030778|-0.045778|-0.035778|-0.020778|-0.025778|-0.020778|-0.035778|-0.030778|-0.025778|-0.010778|-0.005778|-0.00077803|-0.00077803|-0.010778|-0.010778|0.019222|0.024222|0.034222|0.029222|0.034222|0.029222|0.049222|0.054222|0.069222|0.079222|0.094222|0.11922|0.16922|0.18422|0.17922|0.14422|0.12922|0.12422|0.13422|0.12422|0.11422|0.099222|0.079222|0.074222|0.084222|0.089222|0.074222|0.059222|0.044222|0.029222|0.019222|0.024222|-0.005778|-0.035778|-0.035778|-0.045778|-0.030778|-0.035778|-0.045778|-0.055778|-0.045778|-0.050778|-0.045778|-0.065778|-0.055778|-0.065778|-0.070778|-0.070778|-0.075778|-0.065778|-0.050778|-0.065778|-0.085778|-0.095778|-0.10578|-0.11078|-0.10078|-0.075778|0.009222|0.18422|0.39922|0.62922|0.91422|1.2142|1.3592|1.2792|1.0142|0.73922|0.46922|0.29422|0.23422|0.22422|0.19422|0.15922|0.11422|0.079222|0.039222|-0.025778|-0.050778|-0.085778|-0.10578|-0.11078|-0.075778|-0.055778|-0.060778|-0.10078|-0.16078|-0.21078|-0.22578|-0.21078|-0.18578|-0.18578|-0.19078|-0.19078|-0.19078|-0.20078|-0.18078|-0.17578|-0.15078|-0.17078|-0.19078|-0.20078|-0.19078|-0.17578|-0.18078|-0.18578|-0.18578|-0.19078|-0.17078|-0.18078|-0.17578|-0.17078|-0.17578|-0.18578|-0.19078|-0.18078|-0.15578|-0.16578|-0.17578|-0.20078|-0.20078|-0.18078|-0.18578|-0.18078|-0.19078|-0.18078|-0.16078|-0.16578|-0.16578|-0.15578|-0.17078|-0.17078|-0.16578|-0.15578|-0.14578|-0.16078|-0.16578|-0.15578|-0.12578|-0.13078|-0.12578|-0.14078|-0.14078|-0.13078|-0.095778|-0.10078|-0.090778|-0.090778|-0.080778|-0.075778|-0.060778|-0.035778|-0.035778|-0.030778|-0.030778|-0.035778|-0.025778|-0.005778|-0.00077803|0.019222|0.034222|0.019222|0.039222|0.044222|0.059222|0.054222|0.049222|0.059222|0.079222|0.084222|0.074222|0.074222|0.079222|0.059222|0.049222|0.029222|0.039222|0.029222|0.019222|0.004222|0.014222|0.024222|0.014222|-0.010778|-0.045778|-0.065778|-0.060778|-0.055778|-0.055778|-0.060778|-0.070778|-0.070778|-0.065778|-0.060778|-0.045778|-0.060778|-0.080778|-0.090778|-0.090778|-0.090778|-0.075778|-0.080778|-0.10578|-0.10578|-0.090778|-0.070778|-0.080778|-0.080778|-0.075778|-0.080778|-0.070778|-0.060778|-0.065778|-0.070778|-0.070778|-0.085778|-0.065778|-0.055778|-0.045778|-0.045778|-0.055778|-0.050778|-0.050778|-0.045778|-0.045778|-0.040778|-0.050778|-0.060778|-0.045778|-0.030778|-0.010778|-0.025778|-0.030778|-0.040778|-0.020778|-0.015778|-0.010778|-0.015778|-0.045778|-0.040778|-0.015778|-0.015778|-0.010778|-0.015778|-0.030778|-0.030778|-0.025778|-0.020778|-0.020778|-0.025778|-0.025778|-0.035778|-0.010778|-0.005778|-0.010778|-0.015778|-0.035778|-0.035778|-0.025778|-0.035778|-0.015778|-0.015778|-0.025778|-0.025778|-0.020778|-0.020778|-0.005778|-0.010778|-0.030778|
-0.020778|-0.020778|-0.005778|-0.010778|-0.030778|-0.055778|-0.045778|-0.040778|-0.020778|-0.010778|-0.030778|-0.035778|-0.025778|-0.020778|-0.020778|-0.025778|-0.030778|-0.035778|-0.045778|-0.035778|-0.035778|-0.035778|-0.025778|-0.030778|-0.025778|-0.015778|-0.015778|-0.020778|-0.020778|-0.030778|-0.015778|0.004222|0.004222|0.009222|0.004222|0.014222|0.019222|0.049222|0.039222|0.054222|0.084222|0.10922|0.14922|0.16422|0.16422|0.15422|0.14422|0.13922|0.15422|0.15422|0.13422|0.12422|0.10422|0.10922|0.10422|0.10922|0.11422|0.10922|0.079222|0.059222|0.039222|0.054222|0.039222|0.024222|0.004222|-0.005778|0.009222|0.004222|0.009222|-0.005778|-0.015778|-0.025778|-0.010778|-0.00077803|-0.010778|-0.020778|-0.015778|-0.020778|-0.020778|-0.010778|-0.010778|-0.025778|-0.020778|-0.020778|-0.020778|-0.045778|-0.075778|-0.10078|-0.085778|0.009222|0.19922|0.44922|0.72422|1.0692|1.3542|1.4842|1.3642|1.0842|0.78422|0.51922|0.35922|0.29922|0.28422|0.23922|0.19422|0.15922|0.11922|0.089222|0.064222|0.024222|-0.00077803|-0.020778|-0.045778|-0.060778|-0.050778|-0.045778|-0.055778|-0.065778|-0.060778|-0.085778|-0.085778|-0.075778|-0.065778|-0.050778|-0.065778|-0.070778|-0.065778|-0.060778|-0.065778|-0.080778|-0.090778|-0.090778|-0.070778|-0.065778|-0.065778|-0.060778|-0.065778|-0.070778|-0.060778|-0.060778|-0.045778|-0.065778|-0.055778|-0.060778|-0.055778|-0.045778|-0.050778|-0.050778|-0.060778|-0.060778|-0.040778|-0.040778|-0.045778|-0.055778|-0.055778|-0.055778|-0.055778|-0.030778|-0.030778|-0.035778|-0.040778|-0.055778|-0.020778|-0.00077803|-0.00077803|-0.010778|-0.005778|-0.010778|-0.00077803|0.014222|-0.00077803|0.014222|0.009222|0.004222|0.034222|0.044222|0.049222|0.049222|0.054222|0.054222|0.064222|0.084222|0.094222|0.094222|0.099222|0.099222|0.12422|0.14422|0.15422|0.16922|0.16922|0.16922|0.18422|0.19922|0.20922|0.20922|0.19922|0.19922|0.22422|0.23422|0.24422|0.25422|0.24422|0.23422|0.25422|0.25922|0.24922|0.24922|0.23422|0.22922|0.23422|0.21922|0.20422|0.19422|0.16922|0.14922|0.13422|0.14422|0.13922|0.12922|0.11922|0.10422|0.10422|0.099222|0.079222|0.079222|0.064222|0.054222|0.064222|0.079222|0.064222|0.054222|0.054222|0.039222|0.049222|0.049222|0.054222|0.054222|0.044222|0.049222|0.059222|0.069222|0.074222|0.054222|0.044222|0.044222|0.049222|0.059222|0.069222|0.074222|0.049222|0.039222|0.054222|0.059222|0.059222|0.069222|0.064222|0.064222|0.069222|0.074222|0.074222|0.074222|0.054222|0.054222|0.069222|0.074222|0.094222|0.079222|0.084222|0.069222|0.084222|0.089222|0.094222|0.094222|0.079222|0.069222|0.069222|0.084222|0.084222|0.084222|0.059222|0.059222|0.064222|0.084222|0.084222|0.089222|0.069222|0.064222|0.069222|0.074222|0.079222|0.074222|0.049222|0.054222|0.074222|0.084222|0.079222|0.074222|0.064222|0.054222|
0.064222|0.069222|0.069222|0.054222|0.054222|0.064222|0.069222|0.059222|0.039222|0.034222|0.039222|0.079222|0.084222|0.059222|0.044222|0.039222|0.039222|0.044222|0.069222|0.069222|0.059222|0.059222|0.044222|0.044222|0.054222|0.059222|0.054222|0.054222|0.049222|0.049222|0.059222|0.079222|0.089222|0.10422|0.10922|0.10422|0.10922|0.10422|0.099222|0.10922|0.12422|0.16422|0.19422|0.21422|0.23922|0.22922|0.21922|0.20922|0.19922|0.21922|0.22422|0.19422|0.16422|0.16922|0.17422|0.18422|0.18422|0.17422|0.15422|0.12422|0.13422|0.10422|0.089222|0.064222|0.044222|0.039222|0.049222|0.059222|0.064222|0.039222|0.029222|0.044222|0.064222|0.074222|0.079222|0.069222|0.059222|0.064222|0.064222|0.044222|0.039222|0.034222|0.034222|0.044222|0.029222|0.004222|-0.035778|-0.050778|-0.060778|-0.010778|0.13422|0.33922|0.58422|0.85422|1.1492|1.4192|1.5192|1.3642|1.0792|0.79922|0.53922|0.34922|0.28422|0.28422|0.25922|0.22422|0.18922|0.16422|0.13422|0.094222|0.039222|-0.005778|-0.010778|-0.005778|0.019222|0.014222|-0.015778|-0.050778|-0.055778|-0.040778|-0.030778|-0.025778|-0.035778|-0.060778|-0.075778|-0.065778|-0.055778|-0.065778|-0.050778|-0.055778|-0.050778|-0.035778|-0.035778|-0.025778|-0.030778|-0.030778|-0.045778|-0.040778|-0.040778|-0.040778|-0.030778|-0.040778|-0.035778|-0.020778|-0.015778|-0.020778|-0.030778|-0.030778|-0.025778|-0.020778|-0.015778|-0.010778|-0.00077803|-0.005778|-0.00077803|-0.00077803|0.009222|-0.00077803|-0.00077803|-0.00077803|-0.005778|0.019222|0.024222|0.029222|0.029222|0.034222|0.044222|0.059222|0.054222|0.059222|0.059222|0.064222|0.059222|0.074222|0.079222|0.059222|0.059222|0.089222|0.089222|0.11422|0.11922|0.12422|0.15422|0.14922|0.14422|0.16922|0.18422|0.20922|0.20922|0.21922|0.21422|0.22422|0.23922|0.25922|0.25922|0.25422|0.24922|0.27422|0.27422|0.28922|0.27922|0.29922|0.30922|0.32922|0.33922|0.33922|0.31922|0.29922|0.27922|0.28922|0.29422|0.30422|0.30922|0.29922|0.29422|0.27422|0.24422|0.22422|0.20422|0.18422|0.17422|0.16922|0.19422|0.19922|0.19922|0.17422|0.14922|0.14922|0.14422|0.14422|0.13922|0.12422|0.10422|0.089222|0.10922|0.12422|0.11922|0.10922|0.089222|0.084222|0.084222|0.084222|0.074222|0.084222|0.074222|0.10422|0.10922|0.10422|0.099222|0.099222|0.089222|0.094222|0.099222|0.094222|0.099222|0.089222|0.084222|0.10922|0.11422|0.12422|0.10422|0.10422|0.079222|0.094222|0.089222|0.099222|0.10922|0.12422|0.10422|0.094222|0.099222|0.10922|0.13422|0.14922|0.12422|0.10422|0.10422|0.12922|0.12922|0.12422|0.10922|0.10922|0.10922|0.10422|0.10422|0.10422|0.10422|0.12422|0.12922|0.13422|0.13422|0.11922|0.099222|0.084222|0.089222|0.10922|0.13422|0.13922|0.11922|0.11922|
0.094222|0.10922|0.10922|0.10422|0.12922|0.13922|0.13922|0.13422|0.12422|0.094222|0.10422|0.12422|0.12422|0.11422|0.10922|0.099222|0.11922|0.12922|0.10922|0.10922|0.11922|0.12422|0.11922|0.11422|0.13422|0.15922|0.15922|0.14422|0.15422|0.15922|0.17422|0.17422|0.16422|0.14922|0.15422|0.19422|0.20922|0.22922|0.25422|0.26922|0.29922|0.29922|0.28922|0.27422|0.27422|0.24922|0.24422|0.22922|0.23422|0.22922|0.22422|0.22422|0.24422|0.26922|0.24922|0.21422|0.17422|0.14422|0.12422|0.10922|0.099222|0.074222|0.069222|0.079222|0.084222|0.11922|0.13922|0.12422|0.12422|0.094222|0.094222|0.084222|0.079222|0.049222|0.014222|-0.010778|-0.015778|0.004222|0.039222|0.044222|0.049222|0.039222|0.044222|0.054222|0.039222|0.004222|-0.030778|-0.045778|0.004222|0.11422|0.28422|0.48922|0.71922|0.98922|1.2942|1.4942|1.5042|1.3042|1.0342|0.79922|0.56922|0.38922|0.27922|0.25422|0.22422|0.17422|0.14922|0.13922|0.13422|0.11422|0.069222|0.029222|0.014222|0.029222|0.039222|0.029222|-0.005778|-0.015778|-0.030778|-0.035778|-0.035778|-0.045778|-0.050778|-0.055778|-0.040778|-0.025778|-0.025778|-0.030778|-0.045778|-0.060778|-0.035778|-0.025778|-0.045778|-0.055778|-0.060778|-0.055778|-0.055778|-0.045778|-0.040778|-0.035778|-0.045778|-0.045778|-0.040778|-0.050778|-0.045778|-0.040778|-0.035778|-0.030778|-0.030778|-0.020778|-0.015778|-0.010778|-0.020778|-0.045778|-0.040778|-0.045778|-0.035778|-0.045778|-0.020778|-0.020778|-0.030778|-0.055778|-0.060778|-0.055778|-0.040778|-0.025778|0.004222|0.014222|0.029222|0.009222|0.004222|-0.005778|-0.005778|0.004222|0.044222|0.059222|0.054222|0.024222|0.004222|0.024222|0.049222|0.069222|0.069222|0.069222|0.094222|0.10922|0.10922|0.094222|0.084222|0.089222|0.10922|0.12422|0.13922|0.14922|0.13922|0.13922|0.15422|0.17422|0.20422|0.19922|0.19422|0.19922|0.20922|0.22922|0.22922|0.23922|0.23422|0.20922|0.22922|0.24922|0.24922|0.24922|0.23422|0.23422|0.24422|0.25922|0.25422|0.26422|0.23922|0.20922|0.18922|0.19422|0.20422|0.20422|0.18422|0.15922|0.14422|0.11922|0.099222|0.10422|0.10422|0.084222|0.079222|0.074222|0.074222|0.084222|0.059222|0.039222|0.039222|0.044222|0.059222|0.064222|0.044222|0.034222|0.049222|0.059222|0.064222|0.054222|0.044222|0.044222|0.059222|0.059222|0.054222|0.029222|0.029222|0.034222|0.049222|0.039222|0.039222|0.029222|0.024222|0.029222|0.039222|0.049222|0.044222|0.049222|0.049222|0.034222|0.019222|0.024222|0.039222|0.049222|0.074222|0.074222|0.074222|0.084222|0.074222|0.054222|0.064222|0.054222|0.069222|0.074222|0.074222|0.069222|0.064222|0.034222|0.049222|0.064222|0.094222|0.079222|0.069222|0.059222|0.054222|0.049222|0.049222|0.069222|0.059222|0.044222|0.034222|0.039222|
0.039222|0.054222|0.069222|0.054222|0.034222|0.039222|0.049222|0.069222|0.069222|0.069222|0.054222|0.039222|0.054222|0.044222|0.039222|0.039222|0.039222|0.029222|0.044222|0.044222|0.044222|0.044222|0.059222|0.059222|0.059222|0.064222|0.074222|0.089222|0.089222|0.084222|0.094222|0.11422|0.11922|0.13422|0.13422|0.099222|0.079222|0.084222|0.11422|0.16422|0.18422|0.22922|0.25422|0.23922|0.20922|0.21422|0.22422|0.21922|0.19922|0.18922|0.18922|0.18422|0.16422|0.14422|0.14922|0.14922|0.15422|0.15422|0.13922|0.10422|0.089222|0.079222|0.069222|0.054222|0.054222|0.044222|0.059222|0.069222|0.069222|0.094222|0.10422|0.10922|0.074222|0.029222|-0.005778|-0.025778|-0.020778|-0.005778|-0.00077803|-0.00077803|0.009222|0.009222|-0.005778|-0.010778|-0.015778|-0.010778|-0.005778|-0.015778|-0.00077803|0.034222|0.12922|0.29922|0.48422|0.72922|1.0242|1.2592|1.3192|1.1542|0.87922|0.62422|0.40422|0.24422|0.17422|0.15922|0.12422|0.094222|0.094222|0.079222|0.084222|0.069222|0.049222|-0.00077803|-0.020778|-0.040778|-0.050778|-0.050778|-0.025778|-0.040778|-0.035778|-0.040778|-0.060778|-0.060778|-0.065778|-0.080778|-0.080778|-0.075778|-0.035778|-0.025778|-0.050778|-0.085778|-0.090778|-0.075778|-0.055778|-0.040778|-0.025778|-0.015778|-0.040778|-0.050778|-0.065778|-0.070778|-0.065778|-0.050778|-0.045778|-0.020778|-0.020778|-0.035778|-0.025778|-0.020778|-0.035778|-0.060778|-0.045778|-0.015778|-0.00077803|0.004222|0.004222|-0.025778|-0.030778|-0.060778|-0.055778|-0.035778|-0.030778|-0.020778|-0.030778|-0.030778|-0.020778|-0.020778|-0.020778|-0.030778|-0.020778|-0.015778|0.009222|0.014222|0.024222|0.019222|0.019222|0.024222|0.024222|0.034222|0.049222|0.039222|0.024222|0.054222|0.089222|0.10922|0.11422|0.10422|0.11422|0.12422|0.13922|0.13922|0.15922|0.16422|0.17422|0.18422|0.18422|0.19922|0.19422|0.18922|0.19922|0.21422|0.24422|0.24422|0.23922|0.23422|0.22422|0.22422|0.24922|0.26422|0.26422|0.24422|0.23922|0.22922|0.22922|0.22922|0.23422|0.22422|0.21422|0.19422|0.17422|0.15422|0.13422|0.11922|0.11922|0.12922|0.14422|0.13422|0.10922|0.094222|0.10422|0.11922|0.11922|0.094222|0.084222|0.049222|0.039222|0.049222|0.044222|0.049222|0.039222|0.024222|0.019222|0.039222|0.054222|0.069222|0.074222|0.044222|0.059222|0.044222|0.039222|0.029222|0.014222|0.014222|0.009222|0.034222|0.064222|0.089222|0.074222|0.044222|0.024222|0.049222|0.069222|0.069222|0.044222|0.034222|0.029222|0.044222|0.059222|0.064222|0.074222|0.079222|0.099222|0.094222|0.094222|0.10422|0.12922|0.12422|0.094222|0.059222|0.039222|0.024222|0.044222|0.069222|0.074222|0.069222|0.024222|-0.025778|-0.030778|-0.020778|0.009222|0.024222|0.029222|0.029222|0.024222|0.009222|0.009222|0.014222|0.034222|0.014222|0.014222|0.004222|
0.004222|0.009222|0.009222|0.019222|0.024222|0.029222|0.019222|0.004222|0.014222|0.039222|0.039222|0.049222|0.024222|-0.00077803|0.004222|0.014222|0.039222|0.039222|0.029222|0.029222|0.029222|0.014222|0.004222|0.019222|0.029222|0.044222|0.059222|0.089222|0.084222|0.089222|0.084222|0.084222|0.089222|0.074222|0.059222|0.034222|0.039222|0.049222|0.044222|0.074222|0.099222|0.14922|0.18922|0.20922|0.20922|0.19922|0.17422|0.13922|0.11922|0.12922|0.14922|0.14922|0.15922|0.15422|0.15422|0.14922|0.12922|0.13422|0.099222|0.069222|0.049222|0.044222|0.029222|0.024222|0.029222|0.044222|0.049222|0.034222|0.019222|-0.00077803|-0.00077803|0.009222|0.004222|-0.020778|-0.045778|-0.035778|-0.035778|-0.015778|-0.015778|-0.015778|-0.030778|-0.045778|-0.040778|-0.045778|-0.060778|-0.080778|-0.10578|-0.12078|-0.11078|-0.050778|0.094222|0.30922|0.53422|0.84422|1.1742|1.4292|1.4092|1.1192|0.77922|0.48422|0.30422|0.22922|0.19422|0.10922|0.049222|0.019222|0.009222|-0.005778|-0.005778|-0.035778|-0.070778|-0.085778|-0.080778|-0.075778|-0.095778|-0.11078|-0.11078|-0.10578|-0.10578|-0.11078|-0.12578|-0.12578|-0.11578|-0.095778|-0.10078|-0.10578|-0.12578|-0.13578|-0.13578|-0.12078|-0.11578|-0.090778|-0.075778|-0.065778|-0.065778|-0.090778|-0.12078|-0.13578|-0.14078|-0.13578|-0.14078|-0.11078|-0.085778|-0.080778|-0.070778|-0.075778|-0.11078|-0.13078|-0.14078|-0.15078|-0.13578|-0.14078|-0.13078|-0.11578|-0.10578|-0.10078|-0.11578|-0.13078|-0.11578|-0.12578|-0.10578|-0.12078|-0.13578|-0.14078|-0.11078|-0.090778|-0.070778|-0.050778|-0.050778|-0.075778|-0.085778|-0.070778|-0.055778|-0.060778|-0.075778|-0.085778|-0.060778|-0.035778|-0.00077803|0.024222|0.049222|0.049222|0.044222|0.034222|0.054222|0.084222|0.084222|0.064222|0.044222|0.064222|0.10922|0.12922|0.11922|0.094222|0.10422|0.11922|0.12922|0.12422|0.10922|0.10922|0.11422|0.13922|0.13422|0.12422|0.10422|0.099222|0.054222|0.029222|0.024222|0.029222|0.029222|0.014222|-0.020778|-0.030778|-0.040778|-0.035778|-0.060778|-0.085778|-0.090778|-0.090778|-0.085778|-0.075778|-0.075778|-0.070778|-0.075778|-0.085778|-0.11078|-0.12078|-0.11578|-0.12578|-0.12078|-0.10578|-0.11078|-0.090778|-0.085778|-0.10578|-0.12578|-0.11078|-0.10078|-0.095778|-0.10578|-0.12078|-0.13078|-0.11578|-0.10578|-0.080778|-0.085778|-0.10578|-0.12078|-0.12578|-0.090778|-0.075778|-0.070778|-0.080778|-0.10078|-0.085778|-0.055778|-0.060778|-0.060778|-0.075778|-0.080778|-0.090778|-0.075778|-0.085778|-0.065778|-0.070778|-0.070778|-0.070778|-0.075778|-0.085778|-0.10078|-0.10578|-0.12578|-0.12078|-0.11578|-0.10078|-0.080778|-0.095778|-0.090778|-0.060778|-0.025778|-0.030778|-0.045778|-0.080778|-0.095778|-0.11578|-0.11578|-0.095778|-0.085778|-0.075778|-0.085778|-0.085778|-0.070778|-0.065778|-0.075778|-0.085778|-0.10578|-0.13078|-0.14078|-0.11578|
-0.090778|-0.10578|-0.11078|-0.10078|-0.12078|-0.15078|-0.16578|-0.14578|-0.12078|-0.11578|-0.085778|-0.070778|-0.075778|-0.080778|-0.085778|-0.095778|-0.10578|-0.11578|-0.10578|-0.10078|-0.11078|-0.11078|-0.12078|-0.13078|-0.14578|-0.12078|-0.090778|-0.065778|-0.085778|-0.12578|-0.14578|-0.12578|-0.10578|-0.090778|-0.060778|-0.040778|-0.045778|-0.060778|-0.080778|-0.075778|-0.075778|-0.035778|-0.025778|-0.010778|0.009222|0.034222|0.049222|0.019222|-0.00077803|0.039222|0.079222|0.074222|0.024222|-0.030778|-0.025778|-0.010778|-0.005778|-0.030778|-0.045778|-0.070778|-0.070778|-0.060778|-0.080778|-0.14078|-0.18078|-0.17078|-0.13578|-0.12078|-0.14078|-0.18078|-0.22078|-0.20078|-0.16578|-0.16078|-0.17078|-0.17578|-0.18578|-0.20578|-0.23078|-0.25578|-0.26578|-0.22578|-0.17578|-0.16578|-0.20078|-0.25078|-0.26578|-0.28578|-0.28578|-0.24578|-0.11078|0.13922|0.43922|0.79422|1.1642|1.4142|1.3842|1.1242|0.77922|0.42422|0.14422|-0.00077803|-0.055778|-0.10078|-0.16578|-0.19078|-0.19078|-0.17078|-0.15578|-0.17078|-0.22078|-0.26578|-0.28078|-0.29078|-0.32078|-0.32578|-0.32578|-0.29078|-0.27578|-0.29578|-0.31578|-0.31578|-0.32078|-0.29578|-0.30078|-0.31078|-0.34078|-0.35078|-0.35578|-0.34578|-0.30578|-0.28078|-0.29578|-0.31578|-0.34578|-0.35078|-0.32578|-0.31078|-0.32078|-0.31078|-0.29078|-0.29578|-0.34078|-0.37578|-0.34078|-0.30078|-0.30078|-0.30078|-0.31578|-0.31578|-0.32578|-0.29078|-0.28078|-0.29578|-0.30578|-0.32078|-0.31578|-0.31078|-0.30078|-0.30578|-0.33078|-0.32578|-0.30578|-0.29078|-0.28578|-0.27578|-0.26578|-0.24578|-0.26078|-0.28078|-0.29078|-0.28078|-0.26078|-0.22078|-0.22078|-0.23078|-0.23578|-0.22578|-0.21078|-0.19078|-0.18078|-0.14078|-0.13578|-0.15578|-0.15578|-0.12078|-0.10078|-0.10078|-0.090778|-0.070778|-0.045778|-0.035778|-0.035778|-0.035778|-0.025778|-0.045778|-0.055778|-0.045778|-0.030778|0.014222|0.034222|0.029222|-0.010778|-0.035778|-0.055778|-0.050778|-0.040778|-0.055778|-0.080778|-0.12078|-0.12578|-0.11078|-0.095778|-0.10078|-0.11078|-0.12078|-0.14578|-0.14078|-0.16078|-0.19078|-0.23078|-0.24578|-0.24078|-0.24078|-0.25078|-0.21078|-0.20578|-0.22078|-0.26578|-0.30578|-0.29078|-0.26078|-0.24578|-0.23078|-0.26078|-0.28078|-0.23578|-0.22078|-0.23578|-0.27078|-0.30078|-0.28578|-0.26578|-0.25078|-0.27078|-0.30078|-0.33078|-0.31078|-0.25578|-0.22078|-0.18578|-0.21578|-0.30578|-0.33078|-0.29078|-0.24078|-0.23078|-0.24578|-0.26578|-0.26078|-0.23078|-0.24078|-0.24578|-0.25078|-0.26078|-0.24578|-0.22578|-0.20078|-0.20578|-0.20078|-0.20078|-0.21578|-0.23578|-0.25078|-0.24078|-0.23578|-0.25078|-0.24078|-0.23078|-0.24578|-0.26078|-0.26578|-0.28578|-0.26078|-0.23078|-0.23078|-0.23578|-0.25578|-0.28078|-0.23578|-0.19078|-0.17578|-0.20078|-0.26078|-0.30578|-0.29578|-0.25078|-0.22578|-0.23578|-0.24578|
-0.26078|-0.30578|-0.29578|-0.25078|-0.22578|-0.23578|-0.24578|-0.25078|-0.24078|-0.24578|-0.25078|-0.26578|-0.27578|-0.28078|-0.25078|-0.25078|-0.25078|-0.24578|-0.22578|-0.22078|-0.20578|-0.20078|-0.23578|-0.25578|-0.25078|-0.21578|-0.19078|-0.18078|-0.20578|-0.23078|-0.24578|-0.25578|-0.26578|-0.25078|-0.20578|-0.17578|-0.16078|-0.16578|-0.17078|-0.16578|-0.15578|-0.16078|-0.13578|-0.10578|-0.080778|-0.035778|0.019222|0.024222|-0.020778|-0.055778|-0.055778|-0.055778|-0.045778|-0.070778|-0.085778|-0.090778|-0.11078|-0.13578|-0.12578|-0.090778|-0.070778|-0.085778|-0.14078|-0.17578|-0.22078|-0.25078|-0.21578|-0.19078|-0.19078|-0.20078|-0.21078|-0.23078|-0.22578|-0.23578|-0.25078|-0.27078|-0.26078|-0.23578|-0.22578|-0.20578|-0.22078|-0.25078|-0.26578|-0.26578|-0.27078|-0.28578|-0.32078|-0.34578|-0.32078|-0.21078|-0.015778|0.24422|0.56922|0.93422|1.3042|1.5342|1.5292|1.2492|0.81422|0.46922|0.23922|0.10922|0.019222|-0.085778|-0.15078|-0.15078|-0.16078|-0.20078|-0.24078|-0.25578|-0.23078|-0.21578|-0.21578|-0.22578|-0.25578|-0.28578|-0.30578|-0.31078|-0.27578|-0.27078|-0.27578|-0.28578|-0.27578|-0.26578|-0.26078|-0.28078|-0.31078|-0.32578|-0.31578|-0.28578|-0.26078|-0.26078|-0.26078|-0.25578|-0.23578|-0.22578|-0.22078|-0.21578|-0.23578|-0.25578|-0.26578|-0.27078|-0.25078|-0.23578|-0.23578|-0.25078|-0.25078|-0.23078|-0.25078|-0.26578|-0.29078|-0.33078|-0.28578|-0.20078|-0.17578|-0.19578|-0.22078|-0.24078|-0.22578|-0.22578|-0.23578|-0.20578|-0.18078|-0.23078|-0.26078|-0.20078|-0.070778|-0.020778|-0.11578|-0.20078|-0.16578|-0.055778|-0.010778|-0.060778|-0.095778|-0.14578|-0.17078|-0.11578|-0.060778|-0.045778|-0.020778|-0.025778|-0.055778|-0.080778|-0.060778|-0.015778|0.014222|0.069222|0.13422|0.13422|0.069222|0.024222|0.044222|0.12922|0.16922|0.18422|0.19422|0.16922|0.12922|0.069222|0.009222|0.039222|0.15922|0.21922|0.17922|0.12922|0.13422|0.15422|0.10922|0.014222|-0.060778|-0.055778|-0.015778|-0.030778|-0.035778|-0.055778|-0.10078|-0.18078|-0.15578|-0.025778|0.084222|0.069222|-0.060778|-0.16078|-0.16578|-0.10578|-0.065778|-0.060778|-0.075778|-0.085778|-0.10078|-0.14078|-0.16578|-0.18578|-0.20078|-0.26078|-0.26578|-0.15578|0.019222|0.054222|-0.035778|-0.065778|-0.085778|-0.13578|-0.15078|-0.13578|-0.13578|-0.16578|-0.21078|-0.18578|-0.12578|-0.085778|-0.11078|-0.11578|-0.065778|-0.010778|0.014222|-0.025778|-0.10078|-0.14578|-0.15578|-0.15078|-0.11578|-0.075778|-0.050778|-0.065778|-0.11078|-0.14578|-0.13578|-0.075778|-0.050778|-0.065778|-0.12578|-0.19078|-0.17578|-0.10078|-0.030778|-0.035778|-0.080778|-0.11578|-0.12078|-0.10578|-0.075778|-0.045778|-0.060778|-0.13078|-0.11078|-0.015778|-0.00077803|-0.085778|-0.16078|-0.17578|-0.075778|-0.015778|-0.030778|-0.14078|-0.25078|-0.21078|-0.025778|0.13922|
-0.13078|-0.11078|-0.015778|-0.00077803|-0.085778|-0.16078|-0.17578|-0.075778|-0.015778|-0.030778|-0.14078|-0.25078|-0.21078|-0.025778|0.13922|0.10922|-0.040778|-0.17078|-0.23078|-0.16078|-0.020778|0.079222|0.034222|-0.055778|-0.090778|-0.14078|-0.20578|-0.22078|-0.10078|0.054222|0.11922|0.069222|-0.010778|-0.095778|-0.15078|-0.13578|-0.11578|-0.11578|-0.10078|-0.040778|0.019222|0.064222|0.099222|0.15922|0.18922|0.15422|0.044222|-0.050778|-0.030778|0.064222|0.14422|0.16422|0.12422|0.054222|0.004222|-0.025778|-0.030778|-0.030778|-0.060778|-0.11078|-0.10578|-0.030778|0.024222|-0.005778|-0.085778|-0.13578|-0.13078|-0.16078|-0.19578|-0.13578|-0.00077803|0.039222|-0.025778|-0.11578|-0.15078|-0.12578|-0.10578|-0.080778|-0.065778|-0.090778|-0.12578|-0.13078|-0.10578|-0.080778|-0.090778|-0.16578|-0.25078|-0.28078|-0.27078|-0.20578|-0.030778|0.21922|0.53422|0.90922|1.3292|1.6592|1.7392|1.5142|1.1092|0.71422|0.39922|0.29422|0.29922|0.18922|-0.060778|-0.17078|-0.040778|0.094222|0.074222|-0.025778|-0.10578|-0.15078|-0.19578|-0.25078|-0.23078|-0.16578|-0.14578|-0.18578|-0.22078|-0.17578|-0.095778|-0.055778|-0.065778|-0.14078|-0.21078|-0.24078|-0.15078|-0.085778|-0.090778|-0.16078|-0.22078|-0.24578|-0.21578|-0.21078|-0.29078|-0.31578|-0.27078|-0.14578|-0.080778|-0.085778|-0.17078|-0.22578|-0.22578|-0.22078|-0.18078|-0.15578|-0.16578|-0.22078|-0.19578|-0.080778|-0.005778|-0.095778|-0.23578|-0.26578|-0.19578|-0.10578|-0.10078|-0.18078|-0.19578|-0.095778|-0.050778|-0.10078|-0.16578|-0.16578|-0.18078|-0.17578|-0.17078|-0.11578|-0.085778|-0.10578|-0.15078|-0.18078|-0.090778|0.019222|0.069222|0.034222|0.009222|0.029222|0.049222|0.004222|-0.055778|-0.050778|-0.00077803|0.074222|0.11922|0.10422|0.059222|0.044222|0.059222|0.084222|0.079222|0.12422|0.16922|0.17922|0.16922|0.16422|0.12922|0.13422|0.20922|0.25922|0.24422|0.23922|0.24922|0.20922|0.16922|0.089222|0.004222|0.014222|0.12922|0.23422|0.24922|0.16422|0.079222|-0.025778|-0.060778|-0.050778|0.014222|0.034222|-0.00077803|-0.010778|0.014222|0.029222|0.004222|-0.045778|-0.085778|-0.10578|-0.14578|-0.16078|-0.12578|-0.040778|-0.010778|0.009222|0.009222|-0.025778|-0.050778|-0.095778|-0.13578|-0.16578|-0.16078|-0.15578|-0.15578|-0.11078|-0.075778|-0.040778|-0.055778|-0.090778|-0.080778|-0.025778|-0.005778|-0.010778|-0.040778|-0.040778|-0.020778|-0.025778|-0.055778|-0.080778|-0.090778|-0.085778|-0.075778|-0.045778|-0.025778|-0.045778|-0.095778|-0.11078|-0.060778|-0.00077803|-0.005778|-0.025778|-0.050778|-0.085778|-0.095778|-0.080778|-0.035778|-0.005778|-0.035778|-0.065778|-0.060778|-0.070778|-0.085778|-0.095778|-0.085778|-0.055778|-0.015778|-0.025778|-0.060778|-0.050778|-0.010778|0.009222|-0.00077803|-0.045778|-0.065778|-0.050778|-0.005778|-0.015778|-0.050778|-0.065778|-0.070778|-0.025778|0.004222|-0.005778|
-0.065778|-0.050778|-0.005778|-0.015778|-0.050778|-0.065778|-0.070778|-0.025778|0.004222|-0.005778|-0.050778|-0.070778|-0.060778|-0.075778|-0.085778|-0.095778|-0.090778|-0.065778|-0.030778|-0.030778|-0.020778|0.009222|-0.020778|-0.10078|-0.11578|-0.045778|0.014222|0.014222|0.009222|-0.010778|-0.020778|-0.025778|-0.050778|-0.070778|-0.070778|-0.015778|0.059222|0.13422|0.13422|0.099222|0.10922|0.10922|0.079222|0.049222|0.069222|0.074222|0.064222|0.079222|0.084222|0.064222|0.004222|-0.030778|0.004222|0.094222|0.10922|0.069222|0.019222|-0.015778|-0.020778|-0.010778|-0.055778|-0.10578|-0.12078|-0.075778|-0.030778|-0.050778|-0.090778|-0.090778|-0.090778|-0.060778|-0.035778|-0.035778|-0.050778|-0.075778|-0.11078|-0.14578|-0.13078|-0.095778|-0.075778|-0.065778|-0.075778|-0.12578|-0.16078|-0.13078|-0.10078|-0.10578|-0.15078|-0.19578|-0.14078|-0.005778|0.20922|0.47422|0.77922|1.1342|1.4792|1.7142|1.7042|1.4592|1.1042|0.75922|0.51922|0.41422|0.32422|0.15922|0.014222|-0.00077803|0.049222|0.049222|-0.00077803|-0.050778|-0.080778|-0.10578|-0.075778|-0.035778|-0.025778|-0.075778|-0.11078|-0.11578|-0.080778|-0.060778|-0.065778|-0.080778|-0.095778|-0.095778|-0.11578|-0.10578|-0.11078|-0.11578|-0.11078|-0.095778|-0.095778|-0.11578|-0.11078|-0.085778|-0.055778|-0.045778|-0.065778|-0.11078|-0.17078|-0.19078|-0.15578|-0.11078|-0.070778|-0.060778|-0.050778|-0.060778|-0.040778|-0.075778|-0.15078|-0.19078|-0.13078|-0.025778|-0.005778|-0.030778|-0.040778|-0.055778|-0.070778|-0.095778|-0.10578|-0.10578|-0.14578|-0.14578|-0.065778|0.029222|0.029222|-0.035778|-0.035778|-0.005778|0.004222|-0.00077803|-0.045778|-0.095778|-0.11078|-0.070778|-0.010778|0.004222|-0.030778|-0.030778|0.004222|0.029222|0.029222|0.044222|0.054222|0.059222|0.069222|0.049222|0.044222|0.074222|0.11922|0.13922|0.15922|0.15922|0.12922|0.12922|0.17922|0.19422|0.18922|0.22422|0.28422|0.27922|0.21922|0.18922|0.20422|0.26422|0.32422|0.33922|0.30422|0.27922|0.28422|0.27922|0.27422|0.25422|0.21922|0.16922|0.14922|0.18422|0.21922|0.17922|0.079222|0.054222|0.10422|0.11422|0.094222|0.064222|0.034222|0.009222|-0.005778|-0.00077803|0.034222|0.019222|-0.020778|-0.030778|0.009222|0.049222|0.014222|-0.055778|-0.070778|-0.030778|-0.010778|-0.020778|-0.040778|-0.035778|-0.020778|0.024222|-0.015778|-0.085778|-0.080778|-0.050778|-0.035778|-0.030778|-0.025778|-0.035778|-0.070778|-0.070778|-0.020778|0.004222|-0.005778|-0.015778|-0.045778|-0.035778|-0.005778|0.029222|0.044222|0.039222|0.009222|-0.030778|-0.050778|-0.020778|0.009222|-0.020778|-0.055778|-0.00077803|0.094222|0.10422|0.039222|-0.00077803|-0.035778|-0.040778|0.004222|0.044222|0.054222|0.044222|0.019222|-0.035778|-0.065778|-0.005778|0.064222|0.074222|0.039222|-0.005778|-0.020778|0.004222|0.034222|0.044222|0.014222|-0.045778|-0.090778|-0.090778|-0.025778|0.074222|
-0.020778|0.004222|0.034222|0.044222|0.014222|-0.045778|-0.090778|-0.090778|-0.025778|0.074222|0.14422|0.12922|0.054222|-0.005778|0.014222|0.059222|0.074222|0.079222|0.034222|-0.025778|-0.055778|-0.015778|0.044222|0.099222|0.099222|0.014222|-0.025778|0.004222|0.084222|0.12922|0.10922|0.064222|0.099222|0.12422|0.11922|0.059222|0.014222|0.044222|0.12922|0.17422|0.23422|0.25422|0.26922|0.23922|0.19922|0.16922|0.13922|0.13922|0.20422|0.21922|0.20922|0.14922|0.11922|0.15922|0.21922|0.21422|0.18422|0.14422|0.084222|0.044222|-0.00077803|-0.00077803|0.039222|0.079222|0.059222|0.049222|0.044222|0.049222|0.099222|0.11922|0.064222|-0.00077803|-0.025778|-0.005778|0.054222|0.14422|0.15422|0.054222|-0.070778|-0.065778|0.099222|0.23422|0.20422|0.099222|0.009222|-0.035778|-0.025778|0.024222|0.10922|0.21422|0.39922|0.67422|1.0192|1.3992|1.7242|1.8742|1.7892|1.4792|1.1092|0.76922|0.49922|0.41922|0.41422|0.33422|0.17922|0.099222|0.069222|0.034222|0.019222|0.029222|0.039222|-0.010778|-0.085778|-0.10078|-0.10078|-0.10078|-0.10078|-0.080778|-0.065778|-0.055778|-0.065778|-0.085778|-0.10578|-0.12078|-0.095778|-0.045778|-0.050778|-0.080778|-0.085778|-0.050778|-0.055778|-0.090778|-0.17078|-0.21578|-0.20578|-0.14078|-0.10078|-0.045778|-0.055778|-0.090778|-0.090778|-0.10078|-0.12078|-0.13078|-0.16578|-0.16578|-0.13578|-0.050778|0.014222|0.019222|-0.070778|-0.12078|-0.11578|-0.080778|-0.085778|-0.090778|-0.10078|-0.080778|-0.060778|-0.045778|-0.025778|0.009222|-0.015778|-0.050778|-0.085778|-0.090778|-0.080778|-0.060778|-0.045778|-0.055778|-0.075778|-0.070778|-0.030778|0.034222|0.049222|0.029222|0.019222|0.039222|0.039222|0.044222|0.024222|0.009222|0.034222|0.054222|0.054222|0.044222|0.074222|0.099222|0.10922|0.099222|0.059222|0.059222|0.14422|0.19422|0.23422|0.28422|0.29922|0.26422|0.19422|0.15422|0.20922|0.27422|0.28422|0.28922|0.28922|0.28922|0.30922|0.35922|0.34922|0.29922|0.25922|0.26422|0.30922|0.31922|0.29422|0.24922|0.23922|0.22422|0.20422|0.20922|0.17922|0.15922|0.12422|0.099222|0.069222|0.069222|0.069222|0.059222|0.049222|0.059222|0.059222|0.029222|0.014222|0.024222|0.044222|0.044222|0.004222|-0.020778|-0.025778|-0.015778|-0.035778|-0.045778|-0.015778|0.004222|0.024222|0.024222|-0.010778|-0.060778|-0.050778|-0.030778|-0.015778|-0.015778|-0.010778|-0.030778|-0.045778|-0.025778|0.054222|0.089222|0.074222|0.034222|0.039222|0.054222|0.019222|-0.020778|-0.070778|-0.060778|-0.010778|0.079222|0.10422|0.064222|0.009222|-0.020778|0.019222|0.054222|0.054222|0.044222|0.029222|0.059222|0.084222|0.059222|-0.005778|-0.040778|-0.005778|0.084222|0.16922|0.13422|0.054222|0.039222|0.064222|0.074222|0.079222|0.089222|0.069222|0.044222|0.044222|0.049222|0.089222|0.10422|0.10422|0.11422|
0.064222|0.074222|0.079222|0.089222|0.069222|0.044222|0.044222|0.049222|0.089222|0.10422|0.10422|0.11422|0.084222|0.079222|0.074222|0.054222|0.009222|-0.010778|0.019222|0.069222|0.094222|0.064222|0.024222|-0.00077803|-0.00077803|-0.005778|0.004222|0.004222|0.014222|0.049222|0.10422|0.15422|0.15422|0.13422|0.11922|0.12922|0.094222|0.064222|0.10422|0.13922|0.12922|0.099222|0.11422|0.16922|0.25922|0.29922|0.26422|0.23922|0.21422|0.16422|0.10922|0.084222|0.084222|0.069222|0.084222|0.10922|0.15922|0.13422|0.059222|0.019222|0.019222|0.039222|0.049222|0.044222|0.024222|0.029222|0.029222|-0.00077803|-0.020778|-0.025778|-0.005778|0.019222|0.004222|-0.005778|-0.005778|-0.005778|0.004222|-0.015778|-0.040778|-0.040778|-0.030778|-0.005778|-0.005778|-0.035778|-0.065778|-0.095778|-0.095778|-0.080778|-0.050778|0.034222|0.22422|0.51422|0.83922|1.1942|1.5292|1.7692|1.7942|1.5642|1.1742|0.78422|0.46922|0.25422|0.19922|0.14922|0.099222|0.059222|0.044222|0.034222|0.009222|-0.045778|-0.080778|-0.080778|-0.055778|-0.050778|-0.095778|-0.10578|-0.10078|-0.075778|-0.090778|-0.12078|-0.11578|-0.11578|-0.11578|-0.13078|-0.14578|-0.14078|-0.14078|-0.13078|-0.11078|-0.080778|-0.095778|-0.11578|-0.15078|-0.18078|-0.18078|-0.14078|-0.12578|-0.13078|-0.13578|-0.13078|-0.12578|-0.13078|-0.13078|-0.14578|-0.18078|-0.22078|-0.18578|-0.090778|-0.020778|-0.030778|-0.075778|-0.095778|-0.10578|-0.11578|-0.11578|-0.14078|-0.12078|-0.10078|-0.070778|-0.040778|-0.025778|-0.050778|-0.095778|-0.13578|-0.12078|-0.050778|-0.035778|-0.050778|-0.065778|-0.060778|-0.040778|-0.030778|-0.025778|-0.030778|-0.045778|-0.040778|-0.010778|0.039222|0.064222|0.074222|0.059222|0.039222|0.039222|0.044222|0.044222|0.079222|0.13922|0.19422|0.21922|0.20922|0.18422|0.17922|0.21422|0.23422|0.24422|0.26922|0.25422|0.23922|0.22422|0.24422|0.28922|0.30422|0.29422|0.27422|0.26422|0.26922|0.29922|0.28922|0.26922|0.22922|0.21922|0.21422|0.19422|0.16422|0.14922|0.12422|0.11922|0.089222|0.074222|0.084222|0.099222|0.089222|0.064222|0.034222|0.029222|0.034222|0.024222|0.009222|0.019222|0.034222|0.044222|0.014222|0.004222|0.004222|0.014222|0.034222|0.049222|0.044222|0.029222|0.019222|0.014222|0.019222|0.029222|0.014222|-0.00077803|0.004222|0.019222|0.014222|0.004222|0.009222|0.009222|0.014222|-0.00077803|-0.005778|-0.00077803|-0.00077803|0.004222|0.024222|0.029222|0.039222|0.034222|0.034222|0.034222|0.034222|0.029222|0.019222|0.019222|0.024222|0.029222|0.039222|0.039222|0.034222|0.034222|0.034222|0.029222|0.024222|0.034222|0.029222|0.039222|0.049222|0.044222|0.019222|0.014222|-0.00077803|0.014222|0.029222|0.034222|0.039222|0.044222|0.044222|0.044222|0.054222|0.039222|0.034222|0.024222|0.024222|0.024222|0.039222|0.069222|0.044222|
-0.00077803|0.014222|0.029222|0.034222|0.039222|0.044222|0.044222|0.044222|0.054222|0.039222|0.034222|0.024222|0.024222|0.024222|0.039222|0.069222|0.044222|0.019222|0.024222|0.024222|0.024222|0.019222|0.019222|0.039222|0.054222|0.034222|0.049222|0.034222|0.034222|0.039222|0.054222|0.064222|0.054222|0.069222|0.074222|0.079222|0.069222|0.079222|0.10922|0.13922|0.16422|0.17422|0.19922|0.23422|0.23922|0.22922|0.20922|0.19422|0.19922|0.18922|0.21422|0.20422|0.18922|0.14422|0.11422|0.12922|0.14922|0.14922|0.13922|0.11422|0.089222|0.064222|0.049222|0.054222|0.049222|0.034222|0.034222|0.024222|0.039222|0.029222|0.029222|0.019222|0.014222|0.014222|0.009222|0.009222|-0.005778|-0.015778|-0.015778|0.004222|0.014222|0.014222|0.009222|-0.010778|-0.010778|-0.020778|-0.040778|-0.035778|-0.005778|0.044222|0.20422|0.42422|0.69922|1.0142|1.3592|1.6542|1.7792|1.6442|1.3092|0.94922|0.59922|0.32422|0.21922|0.23422|0.20922|0.14922|0.11922|0.089222|0.074222|0.059222|0.039222|-0.005778|-0.050778|-0.075778|-0.075778|-0.055778|-0.030778|-0.050778|-0.075778|-0.080778|-0.090778|-0.10078|-0.085778|-0.075778|-0.080778|-0.080778|-0.10078|-0.12078|-0.095778|-0.080778|-0.095778|-0.10078|-0.10578|-0.11578|-0.095778|-0.095778|-0.10078|-0.11078|-0.12078|-0.12078|-0.11078|-0.095778|-0.085778|-0.095778|-0.11078|-0.10078|-0.10078|-0.10078|-0.10578|-0.10578|-0.10578|-0.095778|-0.095778|-0.090778|-0.085778|-0.090778|-0.090778|-0.090778|-0.095778|-0.090778|-0.090778|-0.085778|-0.075778|-0.090778|-0.080778|-0.080778|-0.070778|-0.070778|-0.070778|-0.055778|-0.055778|-0.045778|-0.050778|-0.060778|-0.060778|-0.035778|-0.030778|-0.020778|-0.020778|-0.015778|-0.010778|0.009222|0.019222|0.029222|0.024222|0.019222|0.039222|0.049222|0.084222|0.094222|0.094222|0.084222|0.089222|0.12422|0.14922|0.15422|0.16422|0.15422|0.16922|0.19422|0.20922|0.21922|0.20922|0.21422|0.21922|0.23922|0.24922|0.24422|0.23922|0.21922|0.20922|0.20922|0.20922|0.20922|0.17922|0.16922|0.14422|0.11922|0.13422|0.10922|0.084222|0.069222|0.049222|0.054222|0.044222|0.039222|0.029222|0.019222|0.004222|0.014222|0.009222|0.014222|0.014222|0.004222|-0.00077803|-0.010778|0.009222|0.009222|-0.005778|-0.025778|-0.020778|-0.025778|-0.015778|-0.010778|-0.025778|-0.030778|-0.025778|-0.025778|-0.015778|-0.015778|-0.030778|-0.030778|-0.025778|-0.020778|0.004222|-0.00077803|-0.005778|-0.030778|-0.025778|-0.00077803|0.009222|0.014222|-0.00077803|-0.015778|-0.020778|-0.015778|0.004222|-0.00077803|-0.005778|-0.020778|-0.020778|0.009222|0.009222|-0.00077803|0.004222|-0.005778|-0.005778|-0.00077803|0.009222|-0.005778|-0.00077803|-0.010778|-0.010778|-0.00077803|-0.00077803|0.009222|0.004222|-0.00077803|-0.015778|-0.00077803|-0.005778|-0.00077803|-0.015778|-0.020778|-0.020778|-0.020778|-0.00077803|-0.005778|-0.005778|-0.015778|
-0.005778|-0.00077803|-0.015778|-0.020778|-0.020778|-0.020778|-0.00077803|-0.005778|-0.005778|-0.015778|-0.015778|-0.010778|-0.010778|-0.00077803|-0.005778|-0.015778|-0.00077803|-0.00077803|0.004222|-0.005778|-0.015778|-0.025778|-0.040778|-0.030778|-0.020778|-0.015778|-0.00077803|-0.015778|-0.020778|-0.010778|0.004222|0.019222|0.029222|0.019222|0.009222|0.029222|0.034222|0.059222|0.074222|0.099222|0.10422|0.14422|0.17922|0.18922|0.16422|0.13922|0.12922|0.13922|0.15422|0.14422|0.12922|0.099222|0.089222|0.089222|0.089222|0.084222|0.074222|0.049222|0.029222|0.024222|0.034222|0.014222|-0.005778|-0.025778|-0.040778|-0.035778|-0.030778|-0.045778|-0.040778|-0.065778|-0.075778|-0.065778|-0.055778|-0.070778|-0.075778|-0.080778|-0.085778|-0.080778|-0.075778|-0.085778|-0.090778|-0.080778|-0.075778|-0.060778|-0.060778|-0.090778|-0.11078|-0.11578|-0.090778|-0.030778|0.10922|0.34922|0.62922|0.93922|1.2842|1.5792|1.6392|1.4092|1.0342|0.66422|0.33922|0.13422|0.089222|0.079222|0.024222|0.004222|-0.005778|-0.020778|-0.025778|-0.070778|-0.12578|-0.14578|-0.16078|-0.17078|-0.16578|-0.16578|-0.16578|-0.17578|-0.18578|-0.19578|-0.19578|-0.20578|-0.21078|-0.20078|-0.19578|-0.18578|-0.18578|-0.20078|-0.20078|-0.20078|-0.21078|-0.19578|-0.20078|-0.20078|-0.20078|-0.20578|-0.20578|-0.20078|-0.17578|-0.18578|-0.19578|-0.20078|-0.20078|-0.19078|-0.19078|-0.20078|-0.20078|-0.21078|-0.22578|-0.20078|-0.18578|-0.18078|-0.16578|-0.18078|-0.18578|-0.18578|-0.18078|-0.18078|-0.19578|-0.19578|-0.21578|-0.18078|-0.16578|-0.13578|-0.14078|-0.16578|-0.18578|-0.16578|-0.13578|-0.11578|-0.11578|-0.12578|-0.14078|-0.11078|-0.085778|-0.060778|-0.070778|-0.085778|-0.085778|-0.050778|-0.015778|0.004222|0.014222|0.004222|0.014222|0.014222|0.039222|0.039222|0.054222|0.079222|0.089222|0.10422|0.10422|0.11422|0.13422|0.13422|0.13922|0.13922|0.12922|0.10922|0.12422|0.13922|0.12422|0.12422|0.11922|0.099222|0.074222|0.059222|0.049222|0.039222|0.034222|0.019222|-0.015778|-0.00077803|-0.025778|-0.040778|-0.040778|-0.035778|-0.050778|-0.060778|-0.080778|-0.060778|-0.045778|-0.050778|-0.060778|-0.050778|-0.060778|-0.065778|-0.075778|-0.080778|-0.080778|-0.075778|-0.060778|-0.065778|-0.070778|-0.080778|-0.090778|-0.085778|-0.080778|-0.060778|-0.050778|-0.055778|-0.060778|-0.075778|-0.090778|-0.070778|-0.045778|-0.030778|-0.040778|-0.070778|-0.070778|-0.050778|-0.035778|-0.035778|-0.050778|-0.080778|-0.080778|-0.060778|-0.060778|-0.065778|-0.050778|-0.050778|-0.045778|-0.040778|-0.045778|-0.035778|-0.045778|-0.060778|-0.065778|-0.045778|-0.035778|-0.025778|-0.040778|-0.055778|-0.065778|-0.035778|-0.015778|-0.020778|-0.040778|-0.035778|-0.045778|-0.055778|-0.030778|-0.015778|-0.030778|-0.035778|-0.050778|-0.045778|-0.060778|-0.040778|-0.025778|-0.030778|-0.040778|-0.050778|-0.035778|-0.025778|-0.020778|-0.030778|-0.055778|-0.030778|
-0.040778|-0.055778|-0.065778|-0.035778|-0.015778|-0.020778|-0.040778|-0.035778|-0.045778|-0.055778|-0.030778|-0.015778|-0.030778|-0.035778|-0.050778|-0.045778|-0.060778|-0.040778|-0.025778|-0.030778|-0.040778|-0.050778|-0.035778|-0.025778|-0.020778|-0.030778|-0.055778|-0.030778|-0.025778|-0.025778|-0.020778|-0.020778|-0.030778|-0.015778|-0.005778|0.009222|-0.005778|-0.005778|0.004222|0.029222|0.054222|0.069222|0.084222|0.10922|0.11422|0.14922|0.17922|0.18422|0.15922|0.12922|0.12922|0.13422|0.12422|0.10422|0.084222|0.074222|0.064222|0.074222|0.064222|0.069222|0.044222|0.034222|0.014222|-0.010778|-0.015778|-0.020778|-0.025778|-0.045778|-0.070778|-0.060778|-0.045778|-0.015778|-0.035778|-0.060778|-0.095778|-0.095778|-0.090778|-0.085778|-0.10078|-0.10078|-0.090778|-0.075778|-0.060778|-0.060778|-0.075778|-0.10078|-0.14578|-0.13078|-0.11578|-0.080778|0.029222|0.20922|0.44422|0.77422|1.0892|1.3942|1.5542|1.4592|1.1342|0.76922|0.48922|0.28422|0.14922|0.074222|-0.015778|-0.040778|-0.050778|-0.035778|-0.065778|-0.11578|-0.14578|-0.15078|-0.15078|-0.15578|-0.16078|-0.18078|-0.19078|-0.19578|-0.20078|-0.19578|-0.21078|-0.22578|-0.22078|-0.21078|-0.20078|-0.19578|-0.20078|-0.21578|-0.20578|-0.20078|-0.19078|-0.20078|-0.21578|-0.21078|-0.22078|-0.22578|-0.21578|-0.20078|-0.18078|-0.18578|-0.22078|-0.24078|-0.23078|-0.22078|-0.22078|-0.23578|-0.24578|-0.23578|-0.22578|-0.20078|-0.20078|-0.21578|-0.23078|-0.23578|-0.21578|-0.19078|-0.19078|-0.20078|-0.21578|-0.21078|-0.20578|-0.21078|-0.21578|-0.20578|-0.22578|-0.21578|-0.18078|-0.16578|-0.16078|-0.17578|-0.17578|-0.16078|-0.15078|-0.13578|-0.14078|-0.13578|-0.11078|-0.080778|-0.080778|-0.090778|-0.090778|-0.065778|-0.040778|-0.020778|-0.00077803|-0.00077803|0.009222|-0.00077803|0.004222|0.019222|0.039222|0.064222|0.064222|0.079222|0.084222|0.089222|0.10922|0.11922|0.12422|0.11422|0.094222|0.089222|0.094222|0.089222|0.069222|0.059222|0.039222|0.029222|-0.00077803|-0.030778|-0.045778|-0.035778|-0.030778|-0.040778|-0.055778|-0.075778|-0.11078|-0.12078|-0.13578|-0.13078|-0.14078|-0.14078|-0.11578|-0.12078|-0.14078|-0.16078|-0.16078|-0.13578|-0.12078|-0.12578|-0.13578|-0.13078|-0.12578|-0.13078|-0.14078|-0.16078|-0.16078|-0.16078|-0.14578|-0.14578|-0.15578|-0.14578|-0.16578|-0.14578|-0.15078|-0.16578|-0.16078|-0.15578|-0.16578|-0.16578|-0.17078|-0.16078|-0.15078|-0.13578|-0.15078|-0.15078|-0.15578|-0.14578|-0.15578|-0.17078|-0.17078|-0.17078|-0.15078|-0.14578|-0.14078|-0.13578|-0.15078|-0.14578|-0.15078|-0.14578|-0.14578|-0.15078|-0.16078|-0.15078|-0.13078|-0.13078|-0.14078|-0.14078|-0.15578|-0.14578|-0.14078|-0.12078|-0.11078|-0.11078|-0.12078|-0.14578|-0.15578|-0.16078|-0.15578|-0.16578|-0.17078|-0.17078|-0.17078|-0.17578|-0.16078|-0.16578|-0.17578|-0.16078|-0.16078|-0.15078|
-0.13078|-0.13078|-0.14078|-0.14078|-0.15578|-0.14578|-0.14078|-0.12078|-0.11078|-0.11078|-0.12078|-0.14578|-0.15578|-0.16078|-0.15578|-0.16578|-0.17078|-0.17078|-0.17078|-0.17578|-0.16078|-0.16578|-0.17578|-0.16078|-0.16078|-0.15078|-0.15578|-0.16078|-0.16078|-0.16078|-0.15578|-0.13078|-0.13078|-0.12578|-0.15578|-0.14078|-0.14078|-0.13078|-0.12078|-0.12578|-0.12578|-0.10078|-0.070778|-0.050778|-0.010778|0.014222|0.024222|0.029222|0.039222|0.029222|0.004222|-0.005778|-0.025778|-0.020778|-0.00077803|-0.005778|-0.025778|-0.040778|-0.060778|-0.065778|-0.080778|-0.070778|-0.10578|-0.13578|-0.16078|-0.16078|-0.15078|-0.14578|-0.15078|-0.17078|-0.18078|-0.17578|-0.16578|-0.17578|-0.18578|-0.20078|-0.22078|-0.19578|-0.19078|-0.18578|-0.19578|-0.20078|-0.19578|-0.20078|-0.19578|-0.20078|-0.22078|-0.24078|-0.25078|-0.22078|-0.11578|0.10422|0.36922|0.70922|1.0792|1.3942|1.5192|1.3192|0.92922|0.55422|0.25922|0.074222|0.029222|-0.015778|-0.045778|-0.070778|-0.10078|-0.11578|-0.13078|-0.16078|-0.19578|-0.22078|-0.25078|-0.24578|-0.24078|-0.23578|-0.26578|-0.27078|-0.28078|-0.27578|-0.24578|-0.23078|-0.23578|-0.24578|-0.26078|-0.25078|-0.24078|-0.25078|-0.26078|-0.26578|-0.27578|-0.25578|-0.24578|-0.23578|-0.24578|-0.26078|-0.26578|-0.24578|-0.23578|-0.22078|-0.21078|-0.22578|-0.25078|-0.26078|-0.23078|-0.22578|-0.23078|-0.22578|-0.22578|-0.20578|-0.21578|-0.22578|-0.22578|-0.22078|-0.22078|-0.22578|-0.20578|-0.19078|-0.19078|-0.20578|-0.21578|-0.19078|-0.19578|-0.18078|-0.18078|-0.19578|-0.19078|-0.19078|-0.17578|-0.16578|-0.15578|-0.15578|-0.16578|-0.16078|-0.14578|-0.11578|-0.11078|-0.11078|-0.11078|-0.095778|-0.070778|-0.045778|-0.030778|-0.020778|-0.040778|-0.025778|-0.010778|0.009222|0.029222|0.039222|0.029222|0.039222|0.059222|0.074222|0.074222|0.079222|0.069222|0.089222|0.10922|0.12922|0.14922|0.14922|0.11422|0.10922|0.12422|0.14922|0.14922|0.13422|0.10422|0.094222|0.079222|0.059222|0.029222|0.014222|0.004222|-0.00077803|-0.035778|-0.035778|-0.035778|-0.060778|-0.080778|-0.080778|-0.085778|-0.070778|-0.095778|-0.11578|-0.12078|-0.085778|-0.080778|-0.075778|-0.10578|-0.12578|-0.15078|-0.16078|-0.15578|-0.16078|-0.14578|-0.14078|-0.12578|-0.10078|-0.070778|-0.10078|-0.14078|-0.18578|-0.19078|-0.15078|-0.11578|-0.090778|-0.075778|-0.090778|-0.13078|-0.15578|-0.12578|-0.11078|-0.10078|-0.11578|-0.12578|-0.080778|-0.065778|-0.075778|-0.085778|-0.11078|-0.13078|-0.12578|-0.095778|-0.065778|-0.035778|-0.030778|-0.060778|-0.085778|-0.095778|-0.080778|-0.025778|0.014222|-0.015778|-0.055778|-0.075778|-0.065778|-0.040778|-0.020778|-0.040778|-0.060778|-0.055778|-0.035778|-0.025778|-0.005778|-0.040778|-0.055778|-0.055778|-0.030778|-0.025778|-0.025778|-0.035778|-0.025778|-0.025778|-0.030778|-0.060778|-0.055778|-0.040778|-0.020778|
