0.031147|0.026147|0.0061474|0.0011474|0.011147|0.021147|0.031147|0.031147|0.0011474|0.0011474|-0.013853|0.0011474|0.011147|0.021147|0.021147|-0.0038526|-0.018853|-0.028853|-0.0088526|0.0061474|0.0011474|-0.013853|-0.048853|-0.028853|-0.018853|0.0011474|-0.0088526|-0.023853|-0.018853|-0.0038526|-0.0038526|0.0061474|-0.023853|-0.028853|-0.028853|-0.013853|-0.0038526|-0.0038526|-0.023853|-0.033853|-0.033853|-0.0038526|0.016147|0.016147|0.011147|-0.023853|-0.033853|-0.023853|-0.018853|-0.0088526|0.0061474|-0.0088526|-0.018853|-0.018853|0.0011474|0.016147|0.0011474|-0.0038526|-0.018853|-0.0088526|-0.018853|0.0011474|-0.013853|-0.013853|-0.0038526|0.0061474|0.011147|0.031147|0.021147|0.011147|0.031147|0.051147|0.056147|0.071147|0.086147|0.10115|0.11115|0.13615|0.17115|0.21615|0.24615|0.26115|0.31115|0.38615|0.49615|0.58615|0.69615|0.74115|0.77115|0.82615|0.90115|0.94615|1.0111|1.0511|1.0911|1.1361|1.1511|1.1661|1.1361|1.0911|1.0061|0.83115|0.48615|0.051147|-0.44885|-0.84885|-1.1339|-1.3039|-1.4389|-1.5139|-1.5589|-1.5489|-1.4989|-1.4639|-1.4139|-1.3689|-1.2889|-1.2189|-1.1739|-1.1539|-1.1189|-1.0689|-1.0239|-1.0039|-0.97385|-0.93385|-0.88885|-0.85885|-0.86885|-0.86885|-0.87385|-0.86385|-0.81885|-0.77385|-0.70885|-0.64885|-0.57385|-0.47885|-0.37385|-0.29885|-0.19885|-0.14385|-0.10385|-0.068853|-0.033853|0.0061474|0.021147|0.046147|0.056147|0.071147|0.10115|0.11115|0.11115|0.13615|0.14115|0.15615|0.19115|0.21615|0.23115|0.23615|0.23615|0.24615|0.26615|0.27115|0.29615|0.32615|0.35115|0.38115|0.40615|0.43115|0.45115|0.47115|0.50115|0.54115|0.57615|0.60115|0.63615|0.64115|0.67615|0.69615|0.73615|0.76115|0.79115|0.81115|0.83615|0.85615|0.91115|0.94615|0.95615|0.96615|0.97115|1.0011|1.0361|1.0511|1.0461|1.0311|1.0161|1.0161|1.0411|1.0511|1.0311|0.99615|0.96115|0.95615|0.95615|0.92615|0.90615|0.86115|0.81615|0.79115|0.78615|0.76615|0.72615|0.67615|0.62615|0.59115|0.56115|0.52615|0.47115|0.42615|0.38115|0.34115|0.31615|0.29115|0.26615|0.23615|0.19115|0.15115|0.17115|0.15115|0.14115|0.12115|0.10115|0.096147|0.096147|0.086147|0.076147|0.056147|0.036147|0.056147|0.066147|0.066147|0.041147|0.031147|0.031147|0.026147|0.056147|0.056147|0.031147|0.016147|-0.0038526|-0.0038526|0.026147|0.021147|0.021147|0.0011474|-0.0088526|-0.013853|0.0011474|0.021147|-0.0038526|0.0011474|-0.013853|-0.018853|0.0061474|0.016147|0.021147|0.0011474|-0.018853|-0.028853|-0.018853|-0.018853|-0.018853|-0.0088526|-0.0088526|-0.0038526|-0.013853|-0.023853|-0.018853|-0.028853|-0.023853|-0.0088526|0.0011474|-0.0088526|-0.018853|-0.043853|-0.028853|-0.0088526|0.0061474|0.0061474|0.0061474|-0.0088526|-0.023853|-0.018853|-0.013853|-0.0038526|-0.013853|-0.028853|-0.038853|-0.043853|
-0.24885|-0.27385|-0.30385|-0.30385|-0.29385|-0.28385|-0.29885|-0.31885|-0.33385|-0.34885|-0.33385|-0.33885|-0.32885|-0.35885|-0.36885|-0.35885|-0.36885|-0.36885|-0.39385|-0.40385|-0.42885|-0.42385|-0.40885|-0.40885|-0.42885|-0.45885|-0.47885|-0.48385|-0.46385|-0.45385|-0.45885|-0.48885|-0.50385|-0.49885|-0.48385|-0.47885|-0.48385|-0.47385|-0.46385|-0.44385|-0.42885|-0.41885|-0.41385|-0.41385|-0.37385|-0.35385|-0.30385|-0.27885|-0.25385|-0.24385|-0.23385|-0.21385|-0.17385|-0.12885|-0.11385|-0.12385|-0.10385|-0.088853|-0.058853|-0.043853|-0.028853|-0.028853|-0.028853|-0.013853|-0.013853|0.011147|0.011147|0.021147|0.0061474|0.026147|0.031147|0.041147|0.031147|0.016147|0.026147|0.031147|0.056147|0.076147|0.086147|0.086147|0.10615|0.14115|0.21115|0.30115|0.38115|0.47115|0.55615|0.66115|0.79115|0.90615|1.0261|1.1161|1.2011|1.2761|1.3611|1.4111|1.4561|1.4561|1.4061|1.3011|1.0911|0.78115|0.40115|0.041147|-0.27385|-0.53385|-0.72885|-0.90385|-1.0189|-1.1489|-1.2389|-1.2989|-1.3689|-1.4289|-1.5139|-1.5739|-1.6339|-1.6789|-1.6939|-1.7289|-1.7439|-1.7739|-1.7989|-1.7989|-1.7589|-1.6939|-1.6239|-1.5089|-1.3489|-1.1939|-1.0489|-0.94385|-0.87385|-0.82885|-0.76885|-0.72385|-0.67885|-0.63385|-0.60385|-0.57385|-0.58885|-0.55885|-0.52385|-0.43885|-0.38385|-0.34885|-0.30885|-0.25885|-0.18885|-0.14885|-0.10885|-0.068853|-0.038853|-0.0038526|0.056147|0.10115|0.11615|0.10615|0.11115|0.15615|0.19615|0.23615|0.24615|0.24615|0.25615|0.27615|0.29615|0.34615|0.36615|0.38115|0.40115|0.41115|0.44615|0.49615|0.48615|0.51115|0.50615|0.55115|0.59115|0.65115|0.66115|0.67115|0.67615|0.71615|0.76115|0.80115|0.82615|0.84115|0.86115|0.88115|0.90615|0.94115|0.97115|0.99115|1.0261|1.0561|1.0861|1.0961|1.1161|1.1111|1.1061|1.1511|1.1811|1.2111|1.2211|1.2361|1.2311|1.2461|1.2611|1.2961|1.3111|1.3011|1.2961|1.2961|1.3011|1.3111|1.2861|1.2911|1.2761|1.2811|1.2761|1.2761|1.2561|1.2211|1.1861|1.1611|1.1661|1.1411|1.1261|1.0711|1.0361|1.0061|0.99115|0.96615|0.92615|0.88615|0.85115|0.82115|0.79615|0.75615|0.72115|0.69615|0.65615|0.63615|0.60115|0.58615|0.54615|0.49615|0.44615|0.41115|0.39615|0.37615|0.35115|0.30615|0.26615|0.26115|0.23615|0.21615|0.20115|0.17615|0.16115|0.16615|0.17615|0.16115|0.14115|0.11115|0.091147|0.076147|0.10115|0.11115|0.11115|0.086147|0.051147|0.041147|0.061147|0.061147|0.051147|0.036147|0.016147|0.031147|0.036147|0.051147|0.026147|0.016147|0.016147|0.016147|0.021147|0.026147|0.016147|-0.0038526|0.0011474|-0.0038526|-0.0088526|0.011147|0.0061474|0.0011474|-0.023853|-0.018853|-0.0038526|0.011147|
-0.17885|-0.14885|-0.13885|-0.13385|-0.14885|-0.14385|-0.12385|-0.098853|-0.083853|-0.093853|-0.10385|-0.10885|-0.11385|-0.073853|-0.078853|-0.088853|-0.10385|-0.10385|-0.098853|-0.078853|-0.083853|-0.093853|-0.10885|-0.098853|-0.093853|-0.088853|-0.10385|-0.10885|-0.13385|-0.12385|-0.11385|-0.11385|-0.10885|-0.11885|-0.13885|-0.12885|-0.12385|-0.093853|-0.10385|-0.13385|-0.14385|-0.14885|-0.14385|-0.12885|-0.12385|-0.11385|-0.13385|-0.13385|-0.13385|-0.10885|-0.10385|-0.10885|-0.11385|-0.11385|-0.11385|-0.10385|-0.098853|-0.088853|-0.083853|-0.078853|-0.063853|-0.048853|-0.053853|-0.048853|-0.063853|-0.048853|0.0011474|0.031147|0.046147|0.036147|0.016147|0.036147|0.10115|0.16615|0.19615|0.23615|0.26115|0.31615|0.40615|0.47115|0.50115|0.48615|0.46115|0.43115|0.41615|0.37115|0.21115|-0.10385|-0.49385|-0.87885|-1.1389|-1.3289|-1.5189|-1.6789|-1.7939|-1.8439|-1.8639|-1.8389|-1.8239|-1.8189|-1.8239|-1.8089|-1.7539|-1.6439|-1.5489|-1.4889|-1.4539|-1.3889|-1.2839|-1.2239|-1.2039|-1.1939|-1.1589|-1.1139|-1.0339|-0.94885|-0.87885|-0.80885|-0.75885|-0.72385|-0.69385|-0.65885|-0.63385|-0.59385|-0.56385|-0.48885|-0.38885|-0.29385|-0.20885|-0.12385|-0.048853|0.036147|0.13115|0.19115|0.24115|0.26615|0.28615|0.28615|0.33615|0.38115|0.40615|0.41115|0.42115|0.45615|0.48615|0.51115|0.53615|0.56115|0.56615|0.58615|0.62115|0.65615|0.67615|0.67115|0.68615|0.70115|0.72615|0.76615|0.77115|0.77615|0.78615|0.81115|0.84615|0.87115|0.90115|0.91115|0.93115|0.97615|0.99615|1.0211|1.0461|1.0661|1.0961|1.1111|1.1511|1.1711|1.1811|1.1911|1.2161|1.2311|1.2611|1.2911|1.3061|1.2811|1.2711|1.2811|1.2811|1.2861|1.2661|1.2561|1.2161|1.2161|1.2111|1.2111|1.1761|1.1261|1.0761|1.0361|1.0011|0.98115|0.95615|0.89615|0.82615|0.76615|0.74615|0.72615|0.69115|0.60615|0.53615|0.48115|0.45115|0.41615|0.40115|0.36115|0.32115|0.28115|0.25115|0.22615|0.19115|0.15115|0.10115|0.076147|0.081147|0.061147|0.036147|0.026147|0.0011474|-0.0088526|-0.023853|-0.033853|-0.053853|-0.078853|-0.078853|-0.063853|-0.068853|-0.058853|-0.058853|-0.073853|-0.088853|-0.088853|-0.093853|-0.078853|-0.088853|-0.11885|-0.13385|-0.12385|-0.11885|-0.098853|-0.10385|-0.11885|-0.11885|-0.13385|-0.12885|-0.10885|-0.10885|-0.10885|-0.12385|-0.13885|-0.13885|-0.13385|-0.12885|-0.13385|-0.15885|-0.15885|-0.15885|-0.14385|-0.13885|-0.14885|-0.16885|-0.16885|-0.17385|-0.14885|-0.14385|-0.15385|-0.16385|-0.16885|-0.16385|-0.13885|-0.14385|-0.16885|-0.17385|-0.17385|-0.16885|-0.16385|-0.15885|-0.17385|-0.16885|-0.17885|-0.16385|-0.15885|-0.17885|-0.20385|-0.20385|-0.19385|-0.17885|-0.17385|-0.18385|-0.18885|-0.20885|-0.19385|
-0.59385|-0.45885|-0.43885|-0.59885|-0.79885|-0.86385|-0.73385|-0.56885|-0.59385|-0.69385|-0.69385|-0.62885|-0.60885|-0.66385|-0.66385|-0.61385|-0.67385|-0.83885|-0.91385|-0.84885|-0.75385|-0.73385|-0.77385|-0.77385|-0.74385|-0.67885|-0.60385|-0.57385|-0.60385|-0.69885|-0.76885|-0.75885|-0.65385|-0.56385|-0.44885|-0.30385|-0.21885|-0.23885|-0.32385|-0.34885|-0.35885|-0.43885|-0.51885|-0.53385|-0.52885|-0.53385|-0.50385|-0.44885|-0.36385|-0.30885|-0.22385|-0.13385|-0.048853|-0.063853|-0.12885|-0.19385|-0.23885|-0.30885|-0.37385|-0.34885|-0.30385|-0.31885|-0.34385|-0.25885|-0.13885|-0.10885|-0.21385|-0.32385|-0.32885|-0.28385|-0.19885|-0.16885|-0.24885|-0.36885|-0.41885|-0.39885|-0.35885|-0.35385|-0.33385|-0.31385|-0.33385|-0.38885|-0.46385|-0.49385|-0.51885|-0.47385|-0.34385|-0.13885|0.10615|0.31615|0.40615|0.32615|0.20615|0.24115|0.46115|0.72115|0.90115|0.88115|0.74115|0.61115|0.56115|0.48115|0.27115|-0.033853|-0.33385|-0.58385|-0.72385|-0.73385|-0.67385|-0.59385|-0.55385|-0.53385|-0.61885|-0.75885|-0.77385|-0.65385|-0.49885|-0.47385|-0.47885|-0.46885|-0.41885|-0.35385|-0.31385|-0.28385|-0.20885|-0.15885|-0.18385|-0.24885|-0.19885|-0.043853|-0.018853|-0.18385|-0.40885|-0.48885|-0.41385|-0.32385|-0.20885|-0.053853|0.096147|0.14615|0.051147|-0.078853|-0.13385|-0.15885|-0.18385|-0.21385|-0.26385|-0.31885|-0.27885|-0.12385|0.066147|0.25615|0.38115|0.36115|0.16615|-0.088853|-0.26385|-0.23385|-0.058853|0.026147|-0.038853|-0.0088526|0.17615|0.25615|0.096147|-0.048853|0.096147|0.36615|0.46115|0.37615|0.22615|0.076147|-0.048853|-0.10385|-0.043853|0.17615|0.35115|0.47615|0.47115|0.41115|0.37115|0.43115|0.48615|0.46615|0.40115|0.38115|0.53115|0.67615|0.62115|0.29615|0.041147|0.011147|0.12615|0.28115|0.53115|0.75615|0.72615|0.57115|0.54115|0.57615|0.50115|0.27615|0.061147|-0.15385|-0.37385|-0.41885|-0.088853|0.33615|0.56615|0.46115|0.24115|0.12615|0.11115|0.12615|0.10115|-0.033853|-0.19885|-0.30385|-0.29885|-0.19885|-0.0038526|0.10615|0.021147|-0.21385|-0.36885|-0.35885|-0.23385|0.0061474|0.30115|0.54615|0.54615|0.35115|0.15115|0.031147|-0.14385|-0.40885|-0.54885|-0.44385|-0.24885|-0.14385|-0.073853|-0.083853|-0.17885|-0.22885|-0.12885|0.051147|0.18115|0.22115|0.19115|0.11115|-0.048853|-0.21385|-0.23385|-0.16385|-0.098853|-0.033853|-0.018853|-0.14885|-0.34385|-0.39885|-0.26885|-0.053853|0.056147|-0.0088526|-0.14885|-0.19885|-0.048853|0.15115|0.15615|-0.043853|-0.32385|-0.48885|-0.54885|-0.52385|-0.38385|-0.098853|0.15615|0.25615|0.11615|-0.13385|-0.29885|-0.14885|0.22615|0.48115|0.43115|0.13115|-0.26385|-0.52885|-0.52385|-0.32385|-0.12385|-0.058853|-0.098853|-0.088853|0.076147|0.25615|0.25115|-0.063853|-0.43385|-0.63885|
-0.52385|-0.35885|-0.18385|-0.093853|-0.088853|-0.13385|-0.17885|-0.19885|-0.16385|-0.11385|-0.16385|-0.20885|-0.12385|0.026147|0.11115|0.096147|-0.048853|-0.19885|-0.24885|-0.25885|-0.30885|-0.37885|-0.32385|-0.13385|-0.0038526|0.026147|-0.088853|-0.24885|-0.32385|-0.27885|-0.15885|-0.088853|-0.048853|-0.043853|-0.048853|-0.033853|0.011147|0.076147|0.081147|-0.088853|-0.33885|-0.45885|-0.40385|-0.27385|-0.10885|0.021147|0.076147|0.10615|0.056147|-0.078853|-0.24885|-0.37385|-0.38385|-0.36385|-0.34885|-0.38885|-0.44885|-0.44385|-0.38885|-0.33385|-0.29385|-0.27385|-0.19885|-0.11885|-0.11385|-0.13385|-0.19885|-0.26385|-0.31385|-0.32385|-0.28885|-0.24385|-0.23385|-0.23385|-0.26385|-0.33385|-0.38385|-0.35885|-0.24385|-0.14385|-0.18885|-0.39885|-0.61385|-0.68885|-0.57885|-0.44885|-0.33385|-0.23385|-0.12385|0.046147|0.22115|0.41115|0.58615|0.67115|0.61115|0.46615|0.42615|0.48615|0.52115|0.51115|0.45615|0.38615|0.22615|-0.038853|-0.34885|-0.57385|-0.71385|-0.77885|-0.82385|-0.85885|-0.88385|-0.92385|-0.91885|-0.87385|-0.80885|-0.73885|-0.68885|-0.63885|-0.57885|-0.50385|-0.42385|-0.35385|-0.27885|-0.19885|-0.078853|-0.013853|-0.033853|-0.15885|-0.26885|-0.30385|-0.27885|-0.22885|-0.053853|0.11115|0.10115|-0.053853|-0.23385|-0.34885|-0.41885|-0.51885|-0.56885|-0.44385|-0.12885|0.12615|0.11615|-0.10885|-0.28385|-0.32385|-0.29885|-0.31885|-0.37385|-0.38885|-0.36885|-0.28885|-0.088853|0.091147|0.20115|0.14115|0.011147|-0.16385|-0.22885|-0.20385|-0.17885|-0.22885|-0.30385|-0.34385|-0.31385|-0.24385|-0.14385|-0.083853|-0.053853|-0.063853|-0.068853|-0.043853|-0.028853|-0.0038526|0.021147|0.036147|0.086147|0.11115|0.096147|0.061147|0.031147|0.016147|0.011147|0.051147|0.13615|0.18115|0.20115|0.21615|0.26115|0.32115|0.39115|0.49115|0.54115|0.46115|0.29115|0.13615|0.086147|0.11615|0.19615|0.22615|0.26115|0.27615|0.27115|0.24615|0.24115|0.24615|0.27115|0.28115|0.24115|0.21115|0.16615|0.16115|0.15115|0.15615|0.15615|0.12615|0.086147|0.041147|0.0011474|-0.018853|-0.033853|-0.033853|-0.053853|-0.068853|-0.088853|-0.088853|-0.088853|-0.10385|-0.11885|-0.14885|-0.15385|-0.15885|-0.15885|-0.16885|-0.17885|-0.18885|-0.20385|-0.21385|-0.21885|-0.21885|-0.21385|-0.22885|-0.22385|-0.20385|-0.18385|-0.17385|-0.20385|-0.20885|-0.21885|-0.22385|-0.18385|-0.15885|-0.13385|-0.11385|-0.088853|-0.033853|0.016147|-0.033853|-0.22385|-0.40385|-0.47385|-0.42885|-0.34385|-0.30885|-0.30885|-0.32385|-0.31385|-0.26385|-0.23885|-0.23885|-0.24885|-0.26885|-0.27385|-0.26385|-0.24885|-0.26385|-0.26885|-0.28385|-0.27885|-0.25885|-0.26885|-0.24885|-0.24385|-0.24385|-0.24885|-0.23385|-0.21385|-0.19385|-0.15885|-0.17885|-0.22885|-0.29385|-0.33885|-0.35885|-0.34885|-0.33385|-0.30885|-0.26385|
-0.30385|-0.30885|-0.38885|-0.45885|-0.51385|-0.50885|-0.47885|-0.46885|-0.46885|-0.45885|-0.43885|-0.45885|-0.45385|-0.48385|-0.50885|-0.50885|-0.50885|-0.48885|-0.49385|-0.50385|-0.52885|-0.52885|-0.55385|-0.52885|-0.52385|-0.53385|-0.55385|-0.54885|-0.54385|-0.53385|-0.51385|-0.52885|-0.56385|-0.60385|-0.62885|-0.62885|-0.59385|-0.58385|-0.57385|-0.58385|-0.58385|-0.56885|-0.53385|-0.49385|-0.48885|-0.42885|-0.41885|-0.40885|-0.39885|-0.41385|-0.41385|-0.38885|-0.33385|-0.28885|-0.26885|-0.26885|-0.26385|-0.25385|-0.24885|-0.22885|-0.21385|-0.19385|-0.19385|-0.20385|-0.19385|-0.17385|-0.16885|-0.16385|-0.15385|-0.17385|-0.15885|-0.14885|-0.13885|-0.16385|-0.17885|-0.15385|-0.12885|-0.11385|-0.093853|-0.098853|-0.10385|-0.048853|0.016147|0.086147|0.18115|0.27115|0.34115|0.43115|0.50615|0.56615|0.67615|0.77615|0.86615|0.95115|1.0311|1.1061|1.1411|1.1111|0.96615|0.70615|0.37115|0.071147|-0.21385|-0.48385|-0.71385|-0.93885|-1.1589|-1.3339|-1.4939|-1.6239|-1.7289|-1.8189|-1.8789|-1.9339|-1.9789|-2.0489|-2.1089|-2.1539|-2.1539|-2.1339|-2.1089|-2.1039|-2.0789|-2.0139|-1.8689|-1.6789|-1.5189|-1.4139|-1.3339|-1.2589|-1.1989|-1.1089|-1.0489|-0.98385|-0.97885|-0.98385|-0.93885|-0.83885|-0.74885|-0.67885|-0.62885|-0.55885|-0.49385|-0.42385|-0.33885|-0.28385|-0.21885|-0.17385|-0.13385|-0.068853|-0.043853|-0.018853|0.016147|0.061147|0.091147|0.10615|0.11115|0.086147|0.076147|0.071147|0.13615|0.21615|0.28115|0.30615|0.32115|0.35115|0.38115|0.41115|0.43615|0.44115|0.47115|0.52115|0.55615|0.61115|0.66115|0.69115|0.70115|0.72615|0.75115|0.80115|0.83615|0.87115|0.88115|0.88615|0.91615|0.95615|1.0211|1.0611|1.0811|1.0911|1.1111|1.1411|1.1711|1.1911|1.1711|1.1811|1.1811|1.1911|1.1911|1.1811|1.1611|1.1461|1.1311|1.1161|1.0911|1.0561|1.0211|1.0061|0.98115|0.98115|0.92615|0.87115|0.82115|0.74615|0.72115|0.68115|0.62115|0.56615|0.51115|0.46115|0.42115|0.38615|0.34615|0.33115|0.27615|0.22615|0.18615|0.16615|0.13615|0.081147|0.071147|0.031147|0.016147|-0.0038526|-0.028853|-0.073853|-0.10385|-0.10385|-0.11385|-0.11385|-0.10385|-0.14885|-0.18385|-0.21385|-0.20885|-0.18385|-0.18385|-0.15885|-0.16885|-0.17885|-0.19885|-0.20385|-0.22885|-0.24385|-0.26385|-0.27385|-0.25385|-0.24385|-0.22885|-0.23385|-0.22885|-0.24885|-0.25885|-0.26385|-0.22885|-0.21385|-0.22885|-0.23385|-0.26385|-0.25385|-0.24385|-0.22885|-0.23885|-0.22885|-0.23385|-0.23885|-0.22885|-0.24385|-0.26885|-0.27885|-0.26885|-0.24385|-0.23885|-0.24885|-0.28385|-0.31885|-0.33385|-0.29885|-0.23885|-0.22385|-0.25385|-0.29885|-0.27885|-0.26385|-0.22385|-0.24385|-0.26885|-0.28885|-0.28885|-0.30385|
-0.44885|-0.42885|-0.45885|-0.47385|-0.46885|-0.48385|-0.47385|-0.44385|-0.42885|-0.44385|-0.47385|-0.46385|-0.44885|-0.43385|-0.46385|-0.48885|-0.48885|-0.47885|-0.43885|-0.40385|-0.44885|-0.47385|-0.44885|-0.40385|-0.38385|-0.35385|-0.35385|-0.32885|-0.29885|-0.24385|-0.19885|-0.17385|-0.18385|-0.21885|-0.24885|-0.24885|-0.21885|-0.16885|-0.13885|-0.13385|-0.14385|-0.13885|-0.13385|-0.11385|-0.11885|-0.10385|-0.10385|-0.098853|-0.12385|-0.12885|-0.14385|-0.11885|-0.13885|-0.16385|-0.17385|-0.16885|-0.14885|-0.12385|-0.12885|-0.11885|-0.11385|-0.11385|-0.11885|-0.13885|-0.16385|-0.19385|-0.20885|-0.18385|-0.16385|-0.14385|-0.15885|-0.14885|-0.12385|-0.12885|-0.17385|-0.22385|-0.25385|-0.24385|-0.21885|-0.21885|-0.25385|-0.27885|-0.26385|-0.18885|-0.093853|0.036147|0.13115|0.22115|0.33615|0.48615|0.65115|0.78115|0.90115|1.0111|1.0961|1.1061|1.0861|1.0411|0.95615|0.86115|0.77615|0.69115|0.52615|0.29615|0.026147|-0.24385|-0.41385|-0.57885|-0.70385|-0.78385|-0.82885|-0.82885|-0.79885|-0.73385|-0.65885|-0.55385|-0.48385|-0.42385|-0.37885|-0.33885|-0.31885|-0.29885|-0.27385|-0.27885|-0.27385|-0.26385|-0.25885|-0.24885|-0.25385|-0.24885|-0.26885|-0.26385|-0.25885|-0.26385|-0.29385|-0.32385|-0.31885|-0.29885|-0.26885|-0.24885|-0.22885|-0.22885|-0.24885|-0.25385|-0.23385|-0.22385|-0.21385|-0.21385|-0.22885|-0.20885|-0.17885|-0.14385|-0.15885|-0.18885|-0.21385|-0.19385|-0.17385|-0.13885|-0.14885|-0.16885|-0.16885|-0.14885|-0.14885|-0.12885|-0.12885|-0.10885|-0.10885|-0.10885|-0.088853|-0.063853|-0.043853|-0.063853|-0.058853|-0.018853|0.036147|0.096147|0.10615|0.10115|0.076147|0.076147|0.11115|0.15115|0.17615|0.19615|0.21615|0.21615|0.23115|0.22615|0.23615|0.23615|0.22615|0.20115|0.18115|0.21615|0.23115|0.19615|0.16115|0.14615|0.14115|0.13115|0.11115|0.076147|0.036147|0.031147|0.021147|0.016147|-0.0088526|-0.013853|-0.023853|-0.023853|-0.028853|-0.058853|-0.093853|-0.12885|-0.13885|-0.10885|-0.098853|-0.10885|-0.14385|-0.15885|-0.17885|-0.17885|-0.14885|-0.13385|-0.13885|-0.15385|-0.16885|-0.16385|-0.15885|-0.14885|-0.15885|-0.14385|-0.13385|-0.12885|-0.12885|-0.13385|-0.17385|-0.20385|-0.18885|-0.16885|-0.15385|-0.14385|-0.15385|-0.15885|-0.15385|-0.13885|-0.12885|-0.12385|-0.16885|-0.18885|-0.18885|-0.17385|-0.16385|-0.14885|-0.17385|-0.19885|-0.20385|-0.21385|-0.20885|-0.17385|-0.18385|-0.20385|-0.19385|-0.18885|-0.18385|-0.17885|-0.21385|-0.22885|-0.22885|-0.21885|-0.17385|-0.17385|-0.17885|-0.19385|-0.20385|-0.19385|-0.18385|-0.17885|-0.20885|-0.22385|-0.20385|-0.18385|-0.17885|-0.18885|-0.20885|-0.22385|-0.24385|-0.22885|-0.22385|-0.18385|-0.18385|-0.19385|-0.19385|-0.19385|-0.20385|-0.20385|-0.20385|-0.20885|-0.21885|-0.21385|
-0.47385|-0.46885|-0.46385|-0.45885|-0.45385|-0.42885|-0.41885|-0.41885|-0.40885|-0.40385|-0.37885|-0.35885|-0.33385|-0.31385|-0.29385|-0.28885|-0.26885|-0.23885|-0.22885|-0.25885|-0.29385|-0.31385|-0.29885|-0.26885|-0.20385|-0.20385|-0.16885|-0.16885|-0.16385|-0.13885|-0.11885|-0.11385|-0.10885|-0.12385|-0.12385|-0.13885|-0.13385|-0.14385|-0.14885|-0.14885|-0.12885|-0.11385|-0.088853|-0.10885|-0.12885|-0.13885|-0.14885|-0.14885|-0.13885|-0.13385|-0.12885|-0.12885|-0.13385|-0.12885|-0.14385|-0.14885|-0.17885|-0.20385|-0.18885|-0.17385|-0.13885|-0.14385|-0.13885|-0.15885|-0.15885|-0.14385|-0.14385|-0.15885|-0.18385|-0.17385|-0.15885|-0.13385|-0.13385|-0.18885|-0.23885|-0.28385|-0.30385|-0.32385|-0.31385|-0.28885|-0.27885|-0.25885|-0.21385|-0.098853|0.011147|0.091147|0.14115|0.21115|0.38115|0.59615|0.79115|0.92115|1.0211|1.0711|1.1211|1.1161|1.0761|1.0311|0.97615|0.90615|0.81615|0.68615|0.50115|0.24615|-0.043853|-0.28885|-0.48385|-0.62385|-0.71385|-0.76885|-0.79885|-0.81385|-0.79885|-0.75385|-0.69385|-0.60385|-0.53385|-0.46885|-0.37385|-0.31885|-0.27385|-0.24385|-0.23885|-0.25385|-0.25885|-0.25885|-0.24885|-0.25385|-0.26885|-0.26385|-0.23885|-0.19885|-0.17385|-0.21385|-0.24385|-0.30385|-0.27885|-0.24885|-0.23385|-0.24885|-0.26385|-0.26385|-0.23385|-0.20385|-0.17885|-0.17385|-0.17385|-0.19385|-0.18885|-0.17385|-0.16385|-0.17385|-0.18385|-0.19885|-0.19885|-0.16385|-0.12385|-0.13885|-0.16885|-0.20385|-0.20385|-0.17385|-0.13385|-0.11885|-0.13885|-0.14885|-0.14885|-0.13885|-0.11885|-0.11885|-0.11885|-0.13385|-0.11385|-0.098853|-0.048853|-0.058853|-0.068853|-0.073853|-0.063853|-0.023853|0.016147|0.031147|0.011147|0.0061474|0.011147|0.046147|0.091147|0.12115|0.10615|0.091147|0.10615|0.14115|0.17615|0.20115|0.19615|0.18115|0.18615|0.20115|0.22615|0.24115|0.23115|0.20615|0.20615|0.20615|0.18615|0.18115|0.15115|0.12115|0.11615|0.10115|0.11115|0.081147|0.046147|0.036147|0.0061474|0.016147|0.021147|0.0061474|-0.028853|-0.058853|-0.053853|-0.058853|-0.053853|-0.063853|-0.073853|-0.078853|-0.083853|-0.093853|-0.088853|-0.093853|-0.10885|-0.11385|-0.10885|-0.11385|-0.11385|-0.11885|-0.11385|-0.11885|-0.11385|-0.11385|-0.098853|-0.12385|-0.12385|-0.12385|-0.11885|-0.093853|-0.073853|-0.10385|-0.13885|-0.14885|-0.15385|-0.10885|-0.098853|-0.098853|-0.11885|-0.15385|-0.15385|-0.12385|-0.12385|-0.10385|-0.11885|-0.13385|-0.13385|-0.12885|-0.12385|-0.13885|-0.14385|-0.13885|-0.14885|-0.14385|-0.12885|-0.13885|-0.14385|-0.14385|-0.14885|-0.14385|-0.13385|-0.13385|-0.15385|-0.15885|-0.14385|-0.13385|-0.11885|-0.11385|-0.12885|-0.15885|-0.16885|-0.15385|-0.12885|-0.11385|-0.12885|-0.13885|-0.15385|-0.14885|-0.13385|-0.13385|-0.14385|-0.13885|-0.14385|-0.13385|
-0.22885|-0.21885|-0.20385|-0.21385|-0.19385|-0.15385|-0.14885|-0.17885|-0.22385|-0.22385|-0.18385|-0.15885|-0.18385|-0.19385|-0.19385|-0.16385|-0.13885|-0.13385|-0.15885|-0.17885|-0.20885|-0.25385|-0.27885|-0.25385|-0.17885|-0.10385|-0.063853|-0.053853|-0.088853|-0.13385|-0.16885|-0.18385|-0.20885|-0.22885|-0.21385|-0.17885|-0.12385|-0.098853|-0.11885|-0.17385|-0.19885|-0.23385|-0.24885|-0.26885|-0.27885|-0.24385|-0.21885|-0.18885|-0.19385|-0.20885|-0.25885|-0.25385|-0.22385|-0.15885|-0.11385|-0.093853|-0.093853|-0.16885|-0.20885|-0.22385|-0.20385|-0.17885|-0.18385|-0.16885|-0.18885|-0.18885|-0.16885|-0.13885|-0.15385|-0.16885|-0.15385|-0.11885|-0.10385|-0.12385|-0.14885|-0.15385|-0.12385|-0.068853|-0.0038526|0.056147|0.066147|0.10115|0.13115|0.16115|0.19115|0.23115|0.24615|0.28115|0.34615|0.40615|0.46115|0.48115|0.50615|0.52615|0.50615|0.50615|0.50115|0.49115|0.45615|0.35615|0.20615|0.036147|-0.15885|-0.38885|-0.58885|-0.79885|-0.97385|-1.0939|-1.1839|-1.2889|-1.4139|-1.4989|-1.5389|-1.5389|-1.5539|-1.5789|-1.6039|-1.6039|-1.5489|-1.5239|-1.5289|-1.5589|-1.5839|-1.5689|-1.5289|-1.4489|-1.4139|-1.3689|-1.3189|-1.2839|-1.2639|-1.1889|-1.1289|-1.0939|-1.0739|-1.0689|-1.0589|-1.0289|-0.99885|-0.98385|-0.94885|-0.87385|-0.80885|-0.74885|-0.66885|-0.57885|-0.47885|-0.40385|-0.36385|-0.30385|-0.20885|-0.11885|-0.023853|0.051147|0.12615|0.18615|0.19115|0.19615|0.16615|0.13115|0.13115|0.14615|0.16615|0.19115|0.22115|0.22615|0.27115|0.32115|0.34615|0.36615|0.36615|0.35115|0.35615|0.40115|0.45615|0.46615|0.45615|0.48115|0.51115|0.54615|0.58615|0.60615|0.59615|0.58615|0.57615|0.57615|0.58615|0.62615|0.66615|0.70115|0.71115|0.70615|0.72115|0.75115|0.79615|0.82615|0.84615|0.87615|0.92615|0.95115|0.97115|0.95615|0.96615|0.98615|1.0061|1.0461|1.0611|1.0911|1.1111|1.1211|1.1511|1.1661|1.1711|1.1711|1.1861|1.1961|1.2311|1.2461|1.2461|1.2611|1.3211|1.4111|1.4711|1.4861|1.4561|1.4061|1.4011|1.4261|1.4611|1.4561|1.4461|1.4211|1.4011|1.3861|1.4261|1.4211|1.4161|1.3861|1.3511|1.3411|1.3561|1.3611|1.3361|1.3161|1.2761|1.2511|1.2411|1.2061|1.1461|1.0911|1.0711|1.0511|1.0261|1.0011|0.96115|0.92115|0.88115|0.84615|0.81115|0.75615|0.71615|0.66115|0.62115|0.61615|0.59615|0.59615|0.57115|0.51115|0.47615|0.43115|0.39115|0.35115|0.31615|0.28615|0.27615|0.27615|0.27615|0.27115|0.25115|0.19615|0.15115|0.11115|0.086147|0.091147|0.091147|0.11115|0.12615|0.13115|0.13615|0.13615|0.11115|0.076147|0.036147|0.026147|0.0061474|0.0061474|0.0011474|-0.0088526|0.0011474|0.011147|
-0.17385|-0.18385|-0.19885|-0.21885|-0.21385|-0.19885|-0.19385|-0.21385|-0.22885|-0.22885|-0.20885|-0.20385|-0.20885|-0.22385|-0.24385|-0.24385|-0.23885|-0.24385|-0.22885|-0.26385|-0.27885|-0.28385|-0.29385|-0.26885|-0.25885|-0.28385|-0.31385|-0.32885|-0.33385|-0.33385|-0.31885|-0.32885|-0.33385|-0.37885|-0.38385|-0.35885|-0.34385|-0.35885|-0.36885|-0.37385|-0.38385|-0.35885|-0.35385|-0.36885|-0.36385|-0.35385|-0.33385|-0.30885|-0.28385|-0.27885|-0.27385|-0.25385|-0.22385|-0.17885|-0.14885|-0.15385|-0.13385|-0.11885|-0.088853|-0.048853|-0.033853|-0.018853|-0.023853|-0.033853|-0.0038526|0.026147|0.046147|0.046147|0.036147|0.026147|0.026147|0.051147|0.056147|0.071147|0.061147|0.046147|0.041147|0.051147|0.071147|0.061147|0.066147|0.096147|0.13615|0.21115|0.29115|0.37615|0.47115|0.59115|0.72115|0.86115|0.97115|1.0711|1.1661|1.2361|1.3311|1.3961|1.4361|1.4261|1.3511|1.1661|0.86615|0.45615|0.051147|-0.31885|-0.64385|-0.88885|-1.0539|-1.1739|-1.2589|-1.3639|-1.4539|-1.5339|-1.5839|-1.6139|-1.6439|-1.6739|-1.7089|-1.7539|-1.7689|-1.7589|-1.7589|-1.7489|-1.7689|-1.7339|-1.6389|-1.5189|-1.3939|-1.2389|-1.1189|-0.96885|-0.84385|-0.74385|-0.66885|-0.63385|-0.60885|-0.59885|-0.55885|-0.52385|-0.48885|-0.47385|-0.46385|-0.43885|-0.37385|-0.32385|-0.24885|-0.20385|-0.15385|-0.10385|-0.053853|-0.013853|0.021147|0.036147|0.076147|0.091147|0.14115|0.17615|0.22615|0.24615|0.25615|0.27615|0.30615|0.33615|0.36115|0.38615|0.38115|0.42115|0.46115|0.51615|0.55115|0.57115|0.57615|0.61615|0.62615|0.64615|0.67615|0.70115|0.72615|0.77115|0.80615|0.84115|0.88615|0.91115|0.91615|0.95115|0.99615|1.0211|1.0711|1.0911|1.1161|1.1161|1.1561|1.1811|1.2211|1.2161|1.2311|1.2561|1.2911|1.3211|1.3361|1.3561|1.3711|1.3811|1.3961|1.4011|1.4111|1.4011|1.3911|1.3961|1.4011|1.4061|1.3861|1.3711|1.3361|1.2911|1.2961|1.2761|1.2561|1.2161|1.1661|1.1211|1.0711|1.0361|1.0211|0.98115|0.92615|0.85615|0.82115|0.78115|0.76115|0.72615|0.67615|0.65115|0.62115|0.59615|0.56115|0.50615|0.46115|0.41115|0.38115|0.36115|0.32615|0.29615|0.25115|0.21115|0.18115|0.18115|0.18615|0.15615|0.13615|0.11615|0.086147|0.096147|0.10115|0.076147|0.076147|0.056147|0.056147|0.066147|0.061147|0.046147|0.031147|0.021147|0.021147|0.031147|0.031147|0.016147|0.0011474|0.0011474|-0.013853|0.026147|0.031147|0.016147|-0.018853|-0.028853|-0.018853|-0.013853|0.011147|-0.0088526|-0.023853|-0.033853|-0.043853|-0.033853|-0.0088526|-0.023853|-0.033853|-0.058853|-0.058853|-0.048853|-0.043853|-0.038853|-0.053853|-0.068853|-0.063853|-0.063853|-0.053853|-0.063853|-0.073853|-0.083853|-0.078853|-0.078853|
-0.25385|-0.22385|-0.21885|-0.23385|-0.24885|-0.27385|-0.26885|-0.27885|-0.25385|-0.26885|-0.27885|-0.31385|-0.33385|-0.32385|-0.30385|-0.31385|-0.31385|-0.34385|-0.36385|-0.35885|-0.32885|-0.34885|-0.37385|-0.37885|-0.38385|-0.37885|-0.37885|-0.39385|-0.41385|-0.42885|-0.41885|-0.40385|-0.38885|-0.39885|-0.40385|-0.41385|-0.39385|-0.37385|-0.34885|-0.34385|-0.33885|-0.33385|-0.32885|-0.29385|-0.27385|-0.24885|-0.23885|-0.21385|-0.19885|-0.17885|-0.14885|-0.14885|-0.13385|-0.12385|-0.098853|-0.068853|-0.018853|-0.018853|-0.018853|-0.0088526|-0.013853|0.016147|0.041147|0.056147|0.046147|0.026147|0.031147|0.036147|0.046147|0.036147|0.021147|0.026147|0.041147|0.051147|0.066147|0.066147|0.061147|0.051147|0.076147|0.096147|0.15615|0.18615|0.23615|0.31615|0.38115|0.51115|0.62115|0.72115|0.80115|0.88115|0.97615|1.0761|1.1811|1.2511|1.3061|1.3561|1.3861|1.4261|1.3811|1.2461|1.0361|0.77115|0.55115|0.34115|0.13615|-0.073853|-0.32385|-0.54385|-0.72385|-0.84385|-0.91885|-0.98385|-1.0639|-1.1489|-1.2289|-1.3089|-1.3689|-1.4289|-1.4939|-1.5139|-1.5239|-1.5389|-1.5489|-1.5939|-1.6339|-1.6589|-1.6489|-1.5989|-1.5039|-1.3889|-1.2389|-1.0989|-0.98385|-0.88385|-0.78885|-0.73385|-0.68385|-0.64885|-0.59885|-0.55885|-0.52885|-0.49885|-0.49885|-0.47885|-0.46885|-0.40885|-0.32385|-0.28885|-0.26885|-0.24385|-0.19385|-0.12885|-0.088853|-0.048853|-0.048853|-0.018853|0.0011474|0.046147|0.096147|0.13615|0.16115|0.18115|0.20115|0.23115|0.26115|0.27115|0.26115|0.28615|0.30615|0.35615|0.37615|0.40615|0.42115|0.42615|0.44615|0.47615|0.51115|0.53615|0.53115|0.56115|0.58115|0.62115|0.66615|0.67615|0.69615|0.70615|0.70615|0.76115|0.81115|0.81615|0.82615|0.83615|0.88615|0.91615|0.94615|0.96615|0.96615|1.0011|1.0211|1.0561|1.0911|1.1011|1.1011|1.1161|1.1411|1.1761|1.1861|1.1961|1.1861|1.1811|1.1861|1.1961|1.2161|1.2111|1.2111|1.2011|1.2011|1.2061|1.1961|1.1711|1.1561|1.1311|1.1111|1.1111|1.0961|1.0711|1.0211|0.97615|0.95615|0.93615|0.90615|0.85615|0.81115|0.77115|0.73115|0.70615|0.68115|0.66615|0.62115|0.58615|0.53115|0.50615|0.48115|0.45615|0.42115|0.39115|0.35115|0.33615|0.32115|0.29115|0.24615|0.21615|0.20115|0.18115|0.19615|0.15615|0.14615|0.13115|0.11615|0.11615|0.14115|0.13615|0.11115|0.086147|0.091147|0.086147|0.096147|0.086147|0.071147|0.066147|0.071147|0.066147|0.061147|0.056147|0.046147|0.026147|0.021147|0.031147|0.056147|0.041147|0.021147|0.021147|0.0061474|0.026147|0.036147|0.036147|0.021147|0.0061474|-0.0038526|0.0061474|0.021147|0.016147|0.0011474|-0.0038526|-0.0088526|0.0011474|0.011147|0.0061474|0.0011474|-0.013853|
-0.30385|-0.29385|-0.30885|-0.33885|-0.34385|-0.33885|-0.30885|-0.31385|-0.34385|-0.36885|-0.37385|-0.37385|-0.37885|-0.36385|-0.34885|-0.37385|-0.38885|-0.40385|-0.38885|-0.40385|-0.41885|-0.43885|-0.45885|-0.44385|-0.43885|-0.43885|-0.46385|-0.48385|-0.50885|-0.49885|-0.49885|-0.48885|-0.49385|-0.52385|-0.54385|-0.52885|-0.52885|-0.51385|-0.51385|-0.53385|-0.53385|-0.53885|-0.50885|-0.50885|-0.48885|-0.48385|-0.48385|-0.45385|-0.42885|-0.39385|-0.38885|-0.39385|-0.37885|-0.33885|-0.31385|-0.27385|-0.25885|-0.26385|-0.24385|-0.20385|-0.16885|-0.13885|-0.14385|-0.14885|-0.13385|-0.11385|-0.10385|-0.098853|-0.098853|-0.098853|-0.10385|-0.10385|-0.093853|-0.083853|-0.088853|-0.083853|-0.088853|-0.083853|-0.068853|-0.063853|-0.068853|-0.048853|-0.018853|0.051147|0.14115|0.19615|0.27615|0.33115|0.40615|0.51115|0.62615|0.72115|0.82615|0.91115|0.99615|1.0811|1.1711|1.2361|1.2211|1.0961|0.83615|0.49115|0.091147|-0.27385|-0.57385|-0.82385|-1.0139|-1.1739|-1.2939|-1.3989|-1.5089|-1.5839|-1.6789|-1.7289|-1.7739|-1.8139|-1.8689|-1.9139|-1.9239|-1.9189|-1.9039|-1.9239|-1.9289|-1.9039|-1.8239|-1.6939|-1.5189|-1.3589|-1.1939|-1.0639|-0.95885|-0.85885|-0.76885|-0.71385|-0.69385|-0.70385|-0.68885|-0.65885|-0.60885|-0.56385|-0.49885|-0.47885|-0.42885|-0.35385|-0.28385|-0.21385|-0.16885|-0.15385|-0.12385|-0.058853|0.0061474|0.061147|0.086147|0.10615|0.11115|0.13115|0.16615|0.18615|0.20115|0.21115|0.22615|0.27615|0.33115|0.37615|0.39115|0.41115|0.43115|0.47115|0.49615|0.53615|0.55615|0.55615|0.56615|0.62115|0.65115|0.69115|0.71615|0.73615|0.75615|0.79115|0.84615|0.89615|0.92115|0.93615|0.95115|0.99115|1.0261|1.0711|1.0811|1.0761|1.0961|1.1261|1.1511|1.1711|1.1911|1.1961|1.1961|1.2111|1.2211|1.2261|1.2311|1.2261|1.1911|1.2111|1.1961|1.1961|1.1661|1.1211|1.0861|1.0761|1.0461|1.0261|0.97615|0.92615|0.87115|0.83615|0.82615|0.80615|0.74615|0.69615|0.63615|0.61115|0.58615|0.56115|0.52615|0.47115|0.43115|0.38615|0.33615|0.30115|0.28115|0.23115|0.20115|0.18615|0.16115|0.15615|0.10115|0.076147|0.061147|0.041147|0.051147|0.036147|0.031147|0.0061474|-0.018853|-0.023853|-0.023853|-0.028853|-0.033853|-0.053853|-0.078853|-0.078853|-0.073853|-0.063853|-0.063853|-0.083853|-0.078853|-0.083853|-0.078853|-0.083853|-0.093853|-0.10385|-0.10885|-0.10385|-0.093853|-0.093853|-0.10885|-0.12385|-0.14885|-0.12885|-0.098853|-0.10885|-0.12385|-0.14885|-0.16885|-0.14385|-0.13385|-0.11385|-0.13885|-0.16385|-0.17885|-0.17385|-0.15885|-0.15385|-0.15885|-0.16885|-0.18385|-0.18385|-0.16885|-0.17385|-0.17385|-0.18885|-0.18385|-0.17885|-0.16885|-0.16385|-0.19385|-0.20885|-0.20885|-0.21385|
-0.30885|-0.30385|-0.31385|-0.31385|-0.31385|-0.31385|-0.33885|-0.34385|-0.32885|-0.31385|-0.31385|-0.33385|-0.35385|-0.35885|-0.34885|-0.33885|-0.33885|-0.35385|-0.37385|-0.37385|-0.37885|-0.37385|-0.36385|-0.36385|-0.40385|-0.41885|-0.42385|-0.40385|-0.39385|-0.41885|-0.43885|-0.45385|-0.46385|-0.45885|-0.43385|-0.44885|-0.46885|-0.46885|-0.46385|-0.46885|-0.46385|-0.47385|-0.46885|-0.48385|-0.47885|-0.46385|-0.44885|-0.44885|-0.42385|-0.40885|-0.38885|-0.35885|-0.34885|-0.32885|-0.30885|-0.28885|-0.26885|-0.23885|-0.21885|-0.21385|-0.20385|-0.18385|-0.15385|-0.12385|-0.093853|-0.088853|-0.088853|-0.098853|-0.078853|-0.058853|-0.033853|-0.043853|-0.048853|-0.063853|-0.068853|-0.043853|-0.028853|-0.018853|-0.028853|-0.033853|-0.018853|0.0061474|0.036147|0.096147|0.14115|0.22115|0.31615|0.47115|0.63115|0.77115|0.88115|0.97615|1.0761|1.1561|1.2311|1.2811|1.3061|1.3111|1.2611|1.1061|0.84615|0.46615|0.041147|-0.33885|-0.64885|-0.88385|-1.0739|-1.2639|-1.4739|-1.6239|-1.7139|-1.7689|-1.7739|-1.7989|-1.8239|-1.8639|-1.8739|-1.8739|-1.8739|-1.8789|-1.8889|-1.8839|-1.8689|-1.8489|-1.7739|-1.6989|-1.6139|-1.5089|-1.3689|-1.2089|-1.0739|-0.96385|-0.88885|-0.81885|-0.74885|-0.68885|-0.61885|-0.58385|-0.56385|-0.54885|-0.51885|-0.46385|-0.41885|-0.35885|-0.31385|-0.28385|-0.22885|-0.14885|-0.10385|-0.068853|-0.053853|-0.023853|0.0061474|0.036147|0.086147|0.11615|0.14615|0.17615|0.21615|0.26615|0.29615|0.28615|0.29615|0.31615|0.35115|0.39115|0.44615|0.47115|0.46615|0.48115|0.51615|0.56615|0.61615|0.63615|0.66115|0.69115|0.72115|0.77115|0.82615|0.84615|0.85615|0.89115|0.91115|0.96115|1.0061|1.0411|1.0511|1.0711|1.0911|1.1161|1.1511|1.1561|1.1761|1.1961|1.2361|1.2761|1.3061|1.3111|1.3111|1.3111|1.3311|1.3411|1.3661|1.3511|1.3511|1.3211|1.3361|1.3411|1.3411|1.3211|1.2911|1.2561|1.2261|1.2161|1.2161|1.1911|1.1411|1.1061|1.0711|1.0411|1.0261|0.96615|0.91115|0.86615|0.82115|0.78615|0.74115|0.70115|0.63615|0.59115|0.56615|0.54615|0.52615|0.48615|0.43115|0.37615|0.32115|0.30615|0.27615|0.24615|0.21615|0.16115|0.12615|0.091147|0.096147|0.066147|0.051147|0.021147|0.011147|0.026147|0.016147|-0.013853|-0.038853|-0.058853|-0.058853|-0.033853|-0.028853|-0.053853|-0.068853|-0.10385|-0.10885|-0.093853|-0.078853|-0.083853|-0.088853|-0.098853|-0.098853|-0.11385|-0.10385|-0.10885|-0.13385|-0.13885|-0.13885|-0.11385|-0.11385|-0.11885|-0.15385|-0.15885|-0.15385|-0.13885|-0.12885|-0.14885|-0.16385|-0.17385|-0.18385|-0.17385|-0.14885|-0.15385|-0.15385|-0.18385|-0.17885|-0.17885|-0.16885|-0.16885|-0.18885|-0.19885|-0.18885|-0.16885|-0.15885|-0.19385|
-0.40385|-0.42385|-0.42885|-0.41885|-0.42385|-0.40885|-0.40885|-0.42885|-0.44385|-0.46885|-0.46885|-0.45385|-0.45385|-0.46385|-0.46885|-0.48385|-0.48385|-0.46885|-0.47885|-0.49885|-0.51885|-0.50885|-0.50385|-0.50385|-0.51385|-0.55385|-0.57885|-0.57885|-0.55385|-0.55885|-0.56385|-0.59385|-0.62885|-0.61885|-0.60885|-0.59385|-0.58385|-0.59385|-0.60385|-0.61385|-0.61385|-0.58885|-0.56885|-0.57385|-0.58885|-0.58385|-0.56885|-0.52385|-0.51385|-0.50385|-0.50885|-0.48385|-0.44385|-0.42385|-0.40885|-0.40885|-0.39385|-0.36885|-0.31885|-0.28385|-0.26885|-0.26885|-0.26885|-0.25385|-0.22385|-0.19885|-0.18885|-0.20385|-0.20885|-0.19885|-0.17885|-0.14885|-0.14885|-0.14385|-0.14885|-0.16385|-0.14885|-0.13385|-0.13385|-0.15885|-0.14385|-0.11385|-0.068853|0.0011474|0.091147|0.17115|0.28615|0.40615|0.53115|0.66615|0.78115|0.87615|0.95615|1.0511|1.1311|1.2261|1.2811|1.3011|1.2461|1.0661|0.76615|0.38615|-0.038853|-0.42385|-0.75385|-1.0139|-1.1939|-1.3239|-1.4339|-1.5439|-1.6639|-1.7389|-1.7739|-1.7939|-1.8289|-1.9039|-1.9789|-2.0139|-2.0389|-2.0589|-2.0389|-2.0389|-2.0389|-2.0039|-1.9189|-1.8239|-1.6989|-1.5589|-1.3939|-1.2439|-1.0989|-1.0039|-0.92385|-0.86885|-0.85385|-0.80885|-0.75385|-0.72385|-0.69385|-0.68385|-0.65885|-0.61885|-0.53385|-0.45385|-0.40385|-0.35385|-0.32385|-0.28385|-0.24885|-0.17885|-0.13885|-0.13385|-0.083853|-0.048853|0.0011474|0.036147|0.061147|0.10115|0.10615|0.12615|0.14615|0.17615|0.18615|0.22115|0.25615|0.28615|0.33115|0.36115|0.37115|0.40615|0.40115|0.42115|0.46115|0.51615|0.54115|0.56615|0.58115|0.59615|0.65615|0.70115|0.74115|0.75615|0.79615|0.82115|0.86115|0.89615|0.89615|0.93115|0.95115|0.98615|1.0261|1.0511|1.0761|1.0861|1.1111|1.1311|1.1611|1.2011|1.2061|1.2161|1.2111|1.2361|1.2461|1.2711|1.2661|1.2511|1.2211|1.2261|1.2211|1.2111|1.1761|1.1561|1.1211|1.0811|1.0511|1.0411|1.0161|0.97115|0.90615|0.88615|0.85115|0.84615|0.80115|0.75615|0.70115|0.65115|0.62615|0.58115|0.52615|0.47115|0.41115|0.37115|0.33615|0.32615|0.27115|0.20615|0.16615|0.13115|0.11615|0.12615|0.096147|0.076147|0.046147|0.021147|0.0061474|-0.0038526|-0.0088526|-0.028853|-0.048853|-0.073853|-0.068853|-0.073853|-0.068853|-0.078853|-0.10385|-0.10885|-0.10885|-0.10385|-0.11385|-0.12385|-0.13385|-0.13885|-0.11885|-0.12385|-0.14885|-0.14885|-0.15885|-0.15885|-0.14885|-0.13885|-0.14885|-0.17385|-0.18885|-0.18885|-0.18385|-0.13885|-0.14385|-0.18385|-0.18885|-0.20885|-0.19385|-0.18385|-0.17385|-0.20385|-0.22385|-0.23385|-0.21885|-0.19385|-0.20385|-0.22385|-0.24385|-0.24885|-0.24885|-0.22885|-0.22385|-0.23885|-0.26385|-0.26385|-0.25885|-0.22885|
-0.083853|-0.088853|-0.098853|-0.12385|-0.11385|-0.098853|-0.083853|-0.098853|-0.11885|-0.11885|-0.11885|-0.11385|-0.098853|-0.11885|-0.11385|-0.14885|-0.14385|-0.13385|-0.11885|-0.12885|-0.12885|-0.13385|-0.14385|-0.13385|-0.13885|-0.15385|-0.16385|-0.19385|-0.20385|-0.19385|-0.18885|-0.20885|-0.23885|-0.22385|-0.22385|-0.21885|-0.22885|-0.22385|-0.23885|-0.24385|-0.23885|-0.22385|-0.21885|-0.22385|-0.22885|-0.24885|-0.23385|-0.22385|-0.19885|-0.19385|-0.18385|-0.19385|-0.15885|-0.10885|-0.058853|-0.033853|-0.043853|-0.023853|0.031147|0.071147|0.10115|0.096147|0.11115|0.096147|0.10115|0.091147|0.12615|0.14115|0.13615|0.12115|0.11615|0.13615|0.15615|0.16115|0.19115|0.21115|0.24115|0.28615|0.32115|0.37615|0.41115|0.45115|0.50615|0.58615|0.65615|0.72615|0.78615|0.85115|0.92115|1.0061|1.0761|1.1211|1.1811|1.2611|1.3311|1.4061|1.4661|1.5061|1.4461|1.2711|0.90115|0.41615|-0.068853|-0.58885|-0.99885|-1.2789|-1.3989|-1.4889|-1.5639|-1.6339|-1.7189|-1.7789|-1.8139|-1.8339|-1.8139|-1.8439|-1.8789|-1.8939|-1.8689|-1.8439|-1.8039|-1.7739|-1.7339|-1.6689|-1.5239|-1.3189|-1.0839|-0.88885|-0.75885|-0.66385|-0.59385|-0.51885|-0.44385|-0.32385|-0.19385|-0.088853|-0.013853|0.051147|0.096147|0.15115|0.20115|0.23115|0.27615|0.31615|0.32115|0.35115|0.33115|0.35615|0.36615|0.39115|0.44615|0.46615|0.47115|0.47115|0.49115|0.51115|0.53115|0.55115|0.55615|0.55615|0.57115|0.61115|0.63115|0.66115|0.66115|0.67115|0.70115|0.72615|0.78115|0.80615|0.83615|0.87115|0.93615|0.97615|1.0261|1.0611|1.0961|1.1561|1.1861|1.2311|1.2411|1.2611|1.2711|1.2711|1.2911|1.3361|1.3661|1.3811|1.3811|1.3961|1.3961|1.4361|1.4711|1.4961|1.4911|1.4811|1.4961|1.5061|1.5311|1.5311|1.4811|1.4611|1.4261|1.3711|1.3111|1.2411|1.1511|1.0411|0.97115|0.90115|0.85115|0.79115|0.73615|0.67615|0.63615|0.59615|0.55615|0.51115|0.47115|0.43115|0.42615|0.41115|0.41115|0.37115|0.34615|0.32115|0.31115|0.30115|0.30615|0.29615|0.26615|0.24615|0.24615|0.24115|0.25115|0.23615|0.22115|0.20115|0.20115|0.19615|0.20115|0.17115|0.13615|0.13615|0.13115|0.14115|0.13615|0.10115|0.10115|0.086147|0.10115|0.10615|0.11115|0.086147|0.061147|0.051147|0.056147|0.066147|0.086147|0.081147|0.061147|0.036147|0.031147|0.051147|0.071147|0.051147|0.026147|0.016147|0.021147|0.026147|0.046147|0.041147|0.016147|0.011147|-0.013853|0.0061474|0.011147|0.0011474|-0.023853|-0.033853|-0.018853|-0.018853|-0.023853|-0.023853|-0.023853|-0.053853|-0.053853|-0.043853|-0.028853|-0.028853|-0.028853|-0.043853|-0.043853|-0.033853|-0.033853|-0.023853|-0.043853|-0.068853|-0.063853|-0.038853|
-0.058853|-0.063853|-0.058853|-0.058853|-0.053853|-0.038853|-0.018853|0.0011474|-0.0088526|0.0011474|0.0061474|0.041147|0.071147|0.081147|0.081147|0.081147|0.096147|0.12115|0.14615|0.14615|0.13615|0.12615|0.12615|0.13115|0.15115|0.15615|0.13615|0.11115|0.12615|0.14115|0.15115|0.14115|0.12615|0.11115|0.10615|0.12115|0.14115|0.14115|0.13115|0.12115|0.10115|0.11115|0.14115|0.13115|0.12115|0.10615|0.10115|0.10115|0.10615|0.11115|0.076147|0.016147|-0.018853|-0.038853|-0.058853|-0.073853|-0.073853|-0.068853|-0.053853|-0.018853|0.016147|0.0061474|-0.028853|-0.078853|-0.098853|-0.14385|-0.18385|-0.24385|-0.29885|-0.36885|-0.37385|-0.38385|-0.37885|-0.41385|-0.41885|-0.45885|-0.47885|-0.48885|-0.48885|-0.50885|-0.52385|-0.52885|-0.51885|-0.47385|-0.45385|-0.44885|-0.48385|-0.51885|-0.54385|-0.58385|-0.66885|-0.82385|-1.0189|-1.1889|-1.2539|-1.2189|-1.1589|-1.1039|-1.0739|-1.0289|-0.97885|-0.87885|-0.74385|-0.62885|-0.53385|-0.45885|-0.40385|-0.32885|-0.27385|-0.23385|-0.20885|-0.21385|-0.17885|-0.13385|-0.088853|-0.043853|0.016147|0.071147|0.17115|0.27615|0.40615|0.46615|0.48115|0.45615|0.47115|0.48615|0.52615|0.51615|0.51115|0.48615|0.51615|0.56615|0.64615|0.67115|0.68615|0.68115|0.70115|0.73115|0.75115|0.77615|0.77615|0.79115|0.79615|0.82115|0.84115|0.84115|0.83115|0.83615|0.83115|0.85615|0.88115|0.89115|0.89115|0.90115|0.92115|0.94115|0.97615|0.99115|0.99615|1.0061|1.0311|1.0811|1.1261|1.1511|1.1661|1.1811|1.2061|1.2161|1.2511|1.2811|1.2811|1.2911|1.3111|1.3461|1.3661|1.3711|1.3811|1.3811|1.3911|1.4161|1.4461|1.4561|1.4511|1.4311|1.4211|1.4461|1.4361|1.4411|1.4311|1.4011|1.3711|1.3461|1.3161|1.2761|1.2061|1.1011|1.0261|0.95615|0.88115|0.80115|0.74615|0.68615|0.62115|0.54115|0.50615|0.46615|0.40615|0.39615|0.37615|0.36615|0.37115|0.35115|0.33115|0.30615|0.28115|0.30115|0.29115|0.27615|0.25615|0.24615|0.22615|0.25115|0.26615|0.25615|0.25115|0.22615|0.23115|0.22115|0.24115|0.23115|0.21115|0.19615|0.17115|0.17615|0.18615|0.19115|0.18615|0.16615|0.15115|0.15615|0.16115|0.15115|0.15115|0.13615|0.14615|0.15615|0.16615|0.14615|0.12615|0.11115|0.11115|0.12615|0.13115|0.13115|0.11115|0.086147|0.091147|0.11115|0.13115|0.11615|0.10615|0.081147|0.076147|0.086147|0.091147|0.10615|0.096147|0.061147|0.056147|0.051147|0.061147|0.066147|0.051147|0.046147|0.031147|0.026147|0.046147|0.061147|0.041147|0.016147|-0.013853|0.031147|0.041147|0.036147|0.031147|0.016147|0.016147|0.0061474|0.036147|0.036147|0.021147|0.016147|0.031147|0.041147|0.046147|0.051147|0.036147|0.026147|0.031147|0.031147|
-0.068853|-0.068853|-0.053853|-0.078853|-0.098853|-0.10885|-0.10885|-0.10385|-0.093853|-0.10385|-0.11885|-0.13385|-0.13385|-0.13885|-0.13885|-0.12885|-0.15385|-0.15885|-0.14885|-0.12885|-0.13885|-0.16385|-0.18885|-0.19385|-0.17385|-0.16885|-0.15885|-0.17385|-0.19385|-0.19385|-0.19385|-0.18385|-0.18385|-0.18885|-0.19885|-0.20885|-0.20885|-0.21885|-0.21385|-0.21885|-0.24385|-0.25385|-0.26385|-0.26385|-0.25885|-0.26885|-0.27385|-0.27885|-0.27385|-0.26885|-0.25385|-0.25885|-0.26385|-0.25385|-0.22885|-0.20885|-0.21385|-0.20385|-0.20885|-0.19885|-0.15385|-0.10885|-0.098853|-0.078853|-0.053853|-0.033853|0.0061474|0.051147|0.091147|0.091147|0.11115|0.12615|0.14115|0.17615|0.19615|0.17615|0.18115|0.18115|0.19615|0.21115|0.24615|0.28615|0.36115|0.46615|0.59115|0.72615|0.81615|0.88115|0.94615|0.99115|1.1011|1.1861|1.2661|1.2961|1.3161|1.3711|1.4061|1.4161|1.4111|1.3461|1.2261|1.1211|0.97615|0.82615|0.64615|0.45115|0.22115|-0.038853|-0.27385|-0.46885|-0.66385|-0.86385|-1.0489|-1.1889|-1.2839|-1.3589|-1.3889|-1.4339|-1.4889|-1.5339|-1.5539|-1.5589|-1.5589|-1.5939|-1.6139|-1.6339|-1.6389|-1.6089|-1.5539|-1.4689|-1.3539|-1.2289|-1.0639|-0.89885|-0.75385|-0.66885|-0.61885|-0.56885|-0.48885|-0.42885|-0.36885|-0.33385|-0.29385|-0.24885|-0.15885|-0.058853|0.046147|0.13115|0.19115|0.26115|0.33115|0.41615|0.45615|0.48115|0.50115|0.53615|0.56115|0.62615|0.67115|0.69115|0.71115|0.73615|0.78615|0.82115|0.85615|0.88115|0.89115|0.91115|0.94115|0.96115|0.98615|0.99615|1.0011|1.0061|1.0261|1.0511|1.0761|1.0761|1.0911|1.0961|1.1111|1.1611|1.1961|1.2211|1.2411|1.2611|1.3011|1.3361|1.3761|1.4061|1.4311|1.4361|1.4611|1.4961|1.5161|1.5311|1.5311|1.5311|1.5461|1.5711|1.5811|1.5761|1.5611|1.5561|1.5711|1.5811|1.5761|1.5511|1.5111|1.4911|1.4561|1.4561|1.4111|1.3511|1.2961|1.2261|1.2011|1.1861|1.1311|1.0411|0.94615|0.85115|0.78615|0.72615|0.65115|0.58615|0.53615|0.49115|0.45115|0.43115|0.41115|0.38115|0.34615|0.33115|0.33615|0.31115|0.30115|0.28115|0.25615|0.24115|0.25115|0.25615|0.25615|0.24615|0.22615|0.21615|0.21115|0.20615|0.21615|0.20115|0.18615|0.18615|0.19615|0.20115|0.20115|0.19115|0.16115|0.16115|0.15615|0.17115|0.19115|0.19115|0.16615|0.14615|0.14615|0.15615|0.17115|0.16615|0.14615|0.13115|0.13615|0.14615|0.14115|0.13615|0.12615|0.11615|0.14115|0.15115|0.15615|0.14115|0.10615|0.091147|0.10115|0.12615|0.11615|0.11115|0.091147|0.081147|0.096147|0.12615|0.12615|0.11115|0.086147|0.081147|0.091147|0.10115|0.10615|0.081147|0.081147|0.066147|
-0.17885|-0.14885|-0.12885|-0.088853|-0.073853|-0.073853|-0.068853|-0.038853|-0.0088526|0.026147|0.021147|0.041147|0.071147|0.091147|0.11615|0.12615|0.13615|0.13115|0.14615|0.17615|0.19615|0.19615|0.19115|0.18115|0.18115|0.17615|0.19615|0.21615|0.20615|0.19615|0.16615|0.17115|0.19115|0.19115|0.17115|0.16115|0.14615|0.15615|0.18115|0.18615|0.17615|0.15115|0.13615|0.13615|0.16115|0.18615|0.17615|0.16615|0.16615|0.15615|0.17115|0.17615|0.17115|0.14615|0.13115|0.13615|0.16615|0.16115|0.15615|0.15615|0.15615|0.15115|0.16115|0.16115|0.14615|0.15115|0.14115|0.14115|0.16115|0.15115|0.15115|0.12615|0.13115|0.14115|0.17115|0.18615|0.17615|0.15115|0.14115|0.13615|0.14115|0.15615|0.16115|0.16115|0.17115|0.17615|0.19115|0.21115|0.22115|0.23615|0.23615|0.24615|0.27115|0.31115|0.29115|0.29115|0.28615|0.31615|0.34615|0.31115|0.18615|0.016147|-0.28885|-0.74885|-1.2189|-1.5139|-1.6289|-1.6889|-1.7339|-1.7639|-1.7739|-1.7889|-1.7939|-1.8139|-1.8289|-1.8389|-1.8189|-1.7989|-1.7839|-1.7989|-1.7839|-1.7489|-1.7089|-1.6689|-1.6289|-1.5939|-1.5489|-1.5039|-1.4339|-1.3689|-1.3189|-1.2639|-1.2039|-1.1589|-1.0689|-0.99385|-0.93385|-0.84385|-0.75885|-0.67385|-0.59885|-0.54385|-0.51885|-0.50385|-0.47885|-0.42885|-0.38885|-0.30885|-0.27385|-0.23885|-0.20385|-0.16885|-0.093853|-0.013853|0.046147|0.10115|0.19115|0.26615|0.34115|0.42115|0.45615|0.51615|0.61115|0.69615|0.79115|0.86615|0.90615|0.93615|0.97115|1.0311|1.1011|1.1611|1.2061|1.2411|1.2711|1.3161|1.3711|1.4261|1.4511|1.4511|1.4961|1.5361|1.5811|1.6211|1.6361|1.6561|1.6511|1.6911|1.7411|1.7711|1.7811|1.7761|1.7911|1.8061|1.8311|1.8361|1.8411|1.8211|1.8211|1.8411|1.8711|1.8911|1.9011|1.8911|1.8761|1.8761|1.9161|1.9261|1.9361|1.9311|1.9161|1.9361|1.9461|1.9661|1.9511|1.9261|1.9211|1.9111|1.9061|1.9061|1.8861|1.8561|1.8261|1.8161|1.8111|1.8111|1.7761|1.7411|1.6961|1.6761|1.6661|1.6311|1.5861|1.5361|1.4811|1.4111|1.3661|1.3061|1.2411|1.1461|1.0661|0.97115|0.91615|0.85615|0.75615|0.69615|0.62115|0.58615|0.53615|0.50615|0.44115|0.39615|0.35615|0.34615|0.34115|0.34115|0.31115|0.28615|0.26615|0.26615|0.27615|0.28615|0.28115|0.25115|0.23615|0.24615|0.25115|0.25115|0.23615|0.22615|0.20115|0.21115|0.22615|0.23115|0.23115|0.22115|0.20115|0.21115|0.20615|0.21615|0.21115|0.19615|0.19115|0.20115|0.20115|0.21615|0.20115|0.17115|0.17115|0.17115|0.20115|0.20115|0.20115|0.18115|0.17115|0.16615|0.17115|0.18115|0.17115|0.16615|
-0.21385|-0.21885|-0.24885|-0.24885|-0.24385|-0.24385|-0.24885|-0.26885|-0.27385|-0.27885|-0.27385|-0.26885|-0.28885|-0.31385|-0.31385|-0.32385|-0.31885|-0.30885|-0.33885|-0.36385|-0.37885|-0.36885|-0.36385|-0.34885|-0.35885|-0.39385|-0.39385|-0.36385|-0.34885|-0.30885|-0.28885|-0.26385|-0.24885|-0.21885|-0.16385|-0.11385|-0.083853|-0.048853|-0.038853|-0.018853|0.021147|0.046147|0.051147|0.036147|0.031147|0.031147|0.061147|0.081147|0.076147|0.071147|0.076147|0.071147|0.091147|0.11115|0.11115|0.10115|0.086147|0.086147|0.10115|0.10615|0.11615|0.10615|0.096147|0.12115|0.14615|0.20115|0.22615|0.26615|0.34615|0.45115|0.59115|0.72115|0.80115|0.88115|0.96115|1.0661|1.2061|1.3311|1.4111|1.4611|1.5111|1.5311|1.4861|1.3361|1.0511|0.70615|0.33115|-0.048853|-0.40385|-0.68385|-0.95385|-1.1789|-1.4089|-1.5739|-1.6889|-1.7489|-1.8039|-1.8639|-1.8939|-1.8989|-1.8789|-1.8289|-1.7539|-1.6139|-1.4239|-1.1539|-0.89885|-0.72385|-0.62885|-0.56885|-0.52885|-0.47385|-0.40385|-0.31885|-0.25385|-0.19885|-0.15885|-0.10885|-0.063853|-0.0038526|-0.0088526|0.011147|0.036147|0.081147|0.12615|0.16115|0.17115|0.18115|0.21115|0.22615|0.26115|0.27615|0.29615|0.28615|0.30615|0.34115|0.39115|0.40615|0.41115|0.40115|0.41615|0.42615|0.48115|0.53115|0.58615|0.59615|0.63115|0.65615|0.69615|0.74115|0.76615|0.80115|0.83115|0.86615|0.88115|0.93615|0.96115|0.98615|0.99615|1.0411|1.1011|1.1361|1.1661|1.2111|1.2261|1.2761|1.3261|1.3811|1.4061|1.4111|1.4561|1.4961|1.5211|1.5461|1.5461|1.5511|1.5211|1.5061|1.4811|1.4511|1.3861|1.3311|1.2411|1.1861|1.1661|1.1361|1.0811|1.0211|0.96615|0.93615|0.90615|0.88115|0.84115|0.80115|0.75115|0.71615|0.70115|0.68115|0.66115|0.61115|0.58115|0.56615|0.56115|0.55615|0.52115|0.48615|0.45615|0.44115|0.41615|0.40615|0.35615|0.30615|0.29115|0.25615|0.25115|0.26115|0.22615|0.20615|0.17115|0.17615|0.18115|0.23115|0.24115|0.23115|0.22615|0.23115|0.24615|0.24615|0.25115|0.24615|0.24615|0.28115|0.34115|0.39615|0.43115|0.46115|0.50615|0.57615|0.71115|0.88115|1.0361|1.1761|1.3511|1.5411|1.6861|1.7511|1.7511|1.7061|1.4961|1.0411|0.43115|-0.14385|-0.55885|-0.78385|-0.86885|-0.88885|-0.88385|-0.88885|-0.91385|-0.93385|-0.96885|-0.99385|-1.0339|-1.0389|-1.0739|-1.1189|-1.1439|-1.1489|-1.1189|-1.0889|-1.0889|-1.0839|-1.0639|-1.0439|-0.99885|-0.95885|-0.94385|-0.92385|-0.90385|-0.89385|-0.85885|-0.82885|-0.79385|-0.77385|-0.73385|-0.69885|-0.61385|-0.53885|-0.48885|-0.44885|-0.41885|-0.36385|-0.33385|-0.30385|-0.29385|-0.29885|-0.31385|-0.29885|-0.28885|-0.26885|
0.69615|0.74115|0.76615|0.80115|0.83115|0.86615|0.88115|0.93615|0.96115|0.98615|0.99615|1.0411|1.1011|1.1361|1.1661|1.2111|1.2261|1.2761|1.3261|1.3811|1.4061|1.4111|1.4561|1.4961|1.5211|1.5461|1.5461|1.5511|1.5211|1.5061|1.4811|1.4511|1.3861|1.3311|1.2411|1.1861|1.1661|1.1361|1.0811|1.0211|0.96615|0.93615|0.90615|0.88115|0.84115|0.80115|0.75115|0.71615|0.70115|0.68115|0.66115|0.61115|0.58115|0.56615|0.56115|0.55615|0.52115|0.48615|0.45615|0.44115|0.41615|0.40615|0.35615|0.30615|0.29115|0.25615|0.25115|0.26115|0.22615|0.20615|0.17115|0.17615|0.18115|0.23115|0.24115|0.23115|0.22615|0.23115|0.24615|0.24615|0.25115|0.24615|0.24615|0.28115|0.34115|0.39615|0.43115|0.46115|0.50615|0.57615|0.71115|0.88115|1.0361|1.1761|1.3511|1.5411|1.6861|1.7511|1.7511|1.7061|1.4961|1.0411|0.43115|-0.14385|-0.55885|-0.78385|-0.86885|-0.88885|-0.88385|-0.88885|-0.91385|-0.93385|-0.96885|-0.99385|-1.0339|-1.0389|-1.0739|-1.1189|-1.1439|-1.1489|-1.1189|-1.0889|-1.0889|-1.0839|-1.0639|-1.0439|-0.99885|-0.95885|-0.94385|-0.92385|-0.90385|-0.89385|-0.85885|-0.82885|-0.79385|-0.77385|-0.73385|-0.69885|-0.61385|-0.53885|-0.48885|-0.44885|-0.41885|-0.36385|-0.33385|-0.30385|-0.29385|-0.29885|-0.31385|-0.29885|-0.28885|-0.26885|-0.26885|-0.27385|-0.27385|-0.28385|-0.26885|-0.27385|-0.27385|-0.27385|-0.27885|-0.27885|-0.23385|-0.22885|-0.22885|-0.22885|-0.22385|-0.19885|-0.16385|-0.11885|-0.11385|-0.083853|-0.068853|-0.033853|0.016147|0.061147|0.081147|0.096147|0.12615|0.16615|0.23115|0.28115|0.29115|0.29615|0.30115|0.33615|0.37615|0.40615|0.41115|0.38115|0.38115|0.39115|0.40615|0.43615|0.43115|0.43115|0.41615|0.40615|0.42615|0.42615|0.42115|0.40615|0.39615|0.38115|0.40115|0.41615|0.39615|0.37115|0.34115|0.33615|0.32115|0.34615|0.31115|0.29115|0.27115|0.25115|0.24115|0.22615|0.20115|0.17615|0.15615|0.14115|0.13615|0.13115|0.096147|0.076147|0.061147|0.061147|0.066147|0.086147|0.051147|0.016147|0.0061474|0.0011474|0.0061474|0.016147|0.0061474|-0.013853|-0.033853|-0.028853|-0.028853|-0.023853|-0.023853|-0.043853|-0.073853|-0.073853|-0.048853|-0.053853|-0.078853|-0.093853|-0.098853|-0.10385|-0.078853|-0.063853|-0.078853|-0.073853|-0.098853|-0.11885|-0.10885|-0.083853|-0.083853|-0.093853|-0.12885|-0.11385|-0.10885|-0.093853|-0.088853|-0.093853|-0.11385|-0.12385|-0.10885|-0.088853|-0.10885|-0.11385|-0.12385|-0.11385|-0.098853|-0.088853|-0.093853|-0.11885|-0.10885|-0.12885|-0.12385|-0.10885|-0.10885|-0.11885|-0.14385|-0.11885|-0.10385|-0.088853|-0.10385|-0.14385|-0.14885|-0.13385|-0.11885|-0.10885|-0.10885|-0.10385|-0.14385|-0.14385|
-0.38385|-0.37385|-0.37885|-0.40385|-0.42385|-0.41885|-0.38885|-0.36885|-0.34885|-0.35385|-0.34385|-0.31885|-0.28885|-0.26385|-0.24385|-0.21885|-0.20385|-0.17385|-0.13885|-0.12385|-0.10885|-0.10885|-0.11385|-0.098853|-0.053853|-0.043853|-0.028853|-0.028853|-0.038853|-0.033853|-0.018853|-0.023853|-0.013853|-0.018853|-0.028853|-0.013853|0.0011474|0.021147|0.016147|0.011147|-0.0038526|-0.0088526|0.0011474|0.011147|0.011147|0.011147|-0.013853|-0.013853|-0.0038526|0.011147|0.011147|0.016147|-0.0038526|-0.013853|-0.0038526|0.011147|0.0061474|0.0061474|0.0011474|0.011147|0.016147|0.031147|0.031147|0.011147|-0.023853|-0.038853|-0.033853|-0.018853|-0.023853|-0.033853|-0.048853|-0.053853|-0.028853|0.021147|0.051147|0.10115|0.15615|0.26115|0.38115|0.53115|0.68115|0.78115|0.89615|1.0461|1.2261|1.4261|1.6461|1.8061|1.9811|2.1711|2.3411|2.4561|2.5111|2.5161|2.5261|2.5311|2.5311|2.5361|2.4911|2.4411|2.3761|2.3061|2.2161|2.1011|1.9361|1.7111|1.4361|1.1461|0.88115|0.65615|0.48615|0.35615|0.25615|0.18115|0.11115|0.056147|-0.023853|-0.088853|-0.16385|-0.21885|-0.24885|-0.28385|-0.30885|-0.35885|-0.37885|-0.40885|-0.42385|-0.44885|-0.47385|-0.49885|-0.52385|-0.53885|-0.51885|-0.53385|-0.53885|-0.57885|-0.60885|-0.61885|-0.59385|-0.58385|-0.57885|-0.59385|-0.60885|-0.61385|-0.61385|-0.62885|-0.65385|-0.67885|-0.70385|-0.71385|-0.72885|-0.74385|-0.77385|-0.79885|-0.83885|-0.85385|-0.87385|-0.90385|-0.91885|-0.94885|-0.97885|-1.0189|-1.0139|-1.0339|-1.0439|-1.0639|-1.0639|-1.0689|-1.0639|-1.0539|-1.0539|-1.0939|-1.0989|-1.0989|-1.0939|-1.0489|-1.0339|-1.0239|-1.0339|-1.0289|-1.0239|-1.0039|-1.0089|-0.98885|-0.98385|-0.94385|-0.89385|-0.84885|-0.81385|-0.77885|-0.74885|-0.70885|-0.65885|-0.58385|-0.53385|-0.49385|-0.46385|-0.43885|-0.38885|-0.35885|-0.31885|-0.28885|-0.26885|-0.24885|-0.21385|-0.18385|-0.17385|-0.15885|-0.15385|-0.15385|-0.12385|-0.11385|-0.078853|-0.088853|-0.088853|-0.093853|-0.098853|-0.078853|-0.058853|-0.068853|-0.093853|-0.078853|-0.063853|-0.053853|-0.058853|-0.063853|-0.073853|-0.063853|-0.048853|-0.053853|-0.043853|-0.033853|-0.038853|-0.063853|-0.063853|-0.038853|-0.018853|-0.028853|-0.043853|-0.058853|-0.058853|-0.033853|-0.033853|-0.048853|-0.043853|-0.053853|-0.038853|-0.013853|-0.0038526|-0.028853|-0.043853|-0.048853|-0.038853|-0.013853|-0.018853|-0.028853|-0.028853|-0.028853|-0.018853|-0.0088526|-0.0038526|-0.013853|-0.0088526|-0.018853|-0.028853|-0.013853|-0.013853|-0.013853|-0.033853|-0.048853|-0.038853|-0.0088526|-0.0088526|-0.018853|-0.033853|-0.043853|-0.023853|-0.023853|-0.018853|-0.018853|-0.028853|-0.033853|-0.038853|-0.023853|-0.018853|-0.028853|-0.033853|-0.028853|-0.013853|-0.0038526|-0.0088526|-0.013853|-0.043853|-0.033853|-0.033853|-0.018853|-0.028853|-0.033853|-0.033853|-0.028853|
-0.028853|-0.033853|-0.053853|-0.053853|-0.038853|-0.038853|-0.033853|-0.053853|-0.083853|-0.073853|-0.058853|-0.043853|-0.053853|-0.043853|-0.053853|-0.068853|-0.058853|-0.043853|-0.058853|-0.063853|-0.073853|-0.068853|-0.063853|-0.038853|-0.043853|-0.063853|-0.093853|-0.088853|-0.083853|-0.058853|-0.048853|-0.063853|-0.068853|-0.078853|-0.068853|-0.063853|-0.058853|-0.068853|-0.073853|-0.073853|-0.063853|-0.048853|-0.053853|-0.048853|-0.073853|-0.088853|-0.063853|-0.048853|-0.033853|-0.063853|-0.068853|-0.068853|-0.063853|-0.033853|-0.028853|-0.043853|-0.063853|-0.053853|-0.023853|0.011147|0.0061474|0.026147|0.036147|0.061147|0.091147|0.10115|0.11615|0.13115|0.13615|0.16615|0.21115|0.28615|0.33115|0.35115|0.38615|0.40115|0.45115|0.51615|0.58115|0.64115|0.69115|0.75615|0.82615|0.87615|0.93615|0.98115|1.0361|1.0961|1.2011|1.3311|1.4511|1.5611|1.6261|1.6711|1.7161|1.7711|1.8161|1.7961|1.7261|1.5661|1.3011|0.96615|0.64615|0.38115|0.16115|-0.0088526|-0.17885|-0.31385|-0.44885|-0.53385|-0.57385|-0.60885|-0.62385|-0.63385|-0.69885|-0.74885|-0.83385|-0.88885|-0.96385|-0.99385|-1.0439|-1.0589|-1.0439|-1.0189|-0.97385|-0.93385|-0.89385|-0.84385|-0.79885|-0.71885|-0.60385|-0.50885|-0.43385|-0.38885|-0.37385|-0.37385|-0.33885|-0.30385|-0.28885|-0.28385|-0.29385|-0.30385|-0.27885|-0.26885|-0.24385|-0.25385|-0.27385|-0.26385|-0.26385|-0.24385|-0.24885|-0.26385|-0.26885|-0.27385|-0.26885|-0.23885|-0.22385|-0.22885|-0.23385|-0.24385|-0.22385|-0.21385|-0.20385|-0.20385|-0.21385|-0.19885|-0.17385|-0.16385|-0.15385|-0.14385|-0.15385|-0.14885|-0.11385|-0.083853|-0.068853|-0.063853|-0.058853|-0.063853|-0.033853|0.011147|0.036147|0.061147|0.056147|0.066147|0.11615|0.14615|0.18615|0.20615|0.21115|0.21615|0.23115|0.26615|0.30615|0.33115|0.34615|0.36115|0.39615|0.41115|0.41615|0.42115|0.41115|0.40115|0.39615|0.38615|0.40615|0.37115|0.33115|0.30615|0.29115|0.29115|0.26115|0.22615|0.17115|0.15615|0.14115|0.14615|0.13115|0.10115|0.081147|0.061147|0.056147|0.061147|0.056147|0.026147|0.011147|0.011147|0.016147|0.021147|0.026147|0.0061474|-0.0088526|-0.028853|-0.033853|-0.018853|-0.013853|-0.028853|-0.038853|-0.073853|-0.063853|-0.038853|-0.048853|-0.053853|-0.063853|-0.073853|-0.053853|-0.053853|-0.058853|-0.068853|-0.078853|-0.078853|-0.078853|-0.048853|-0.048853|-0.078853|-0.078853|-0.088853|-0.078853|-0.063853|-0.063853|-0.063853|-0.098853|-0.093853|-0.093853|-0.078853|-0.078853|-0.073853|-0.083853|-0.088853|-0.088853|-0.088853|-0.093853|-0.083853|-0.093853|-0.10385|-0.10885|-0.083853|-0.083853|-0.083853|-0.10885|-0.11885|-0.11885|-0.10885|-0.093853|-0.10885|-0.12885|-0.13885|-0.13385|-0.11385|-0.10385|-0.10885|-0.12385|-0.14885|-0.12385|-0.10885|-0.10885|-0.11385|-0.12385|-0.12385|-0.12385|-0.10885|
-0.20385|-0.15885|-0.10885|-0.10385|-0.10385|-0.11385|-0.093853|-0.073853|-0.078853|-0.073853|-0.088853|-0.078853|-0.073853|-0.053853|-0.053853|-0.048853|-0.068853|-0.063853|-0.053853|-0.043853|-0.043853|-0.053853|-0.083853|-0.088853|-0.073853|-0.043853|-0.048853|-0.053853|-0.078853|-0.073853|-0.063853|-0.048853|-0.043853|-0.078853|-0.098853|-0.088853|-0.073853|-0.058853|-0.068853|-0.068853|-0.068853|-0.063853|-0.053853|-0.043853|-0.048853|-0.073853|-0.083853|-0.058853|-0.048853|-0.033853|-0.038853|-0.038853|-0.053853|-0.053853|-0.048853|-0.043853|-0.038853|-0.038853|-0.043853|-0.043853|-0.033853|0.0061474|0.021147|0.031147|0.061147|0.10115|0.15115|0.22615|0.29115|0.34615|0.38115|0.41615|0.45615|0.47615|0.49615|0.51615|0.52115|0.53615|0.54615|0.55615|0.55115|0.50115|0.44615|0.36115|0.24115|0.056147|-0.19385|-0.48885|-0.78385|-1.0239|-1.2239|-1.3639|-1.5089|-1.6139|-1.7189|-1.7839|-1.8589|-1.9039|-1.9339|-1.9289|-1.9139|-1.8839|-1.8389|-1.7789|-1.6639|-1.5489|-1.4389|-1.3489|-1.2539|-1.1789|-1.0739|-0.98885|-0.90885|-0.82885|-0.71885|-0.61385|-0.52885|-0.46885|-0.41885|-0.34385|-0.25885|-0.15885|-0.078853|-0.023853|0.0061474|0.041147|0.091147|0.12115|0.16115|0.16115|0.17115|0.19115|0.20615|0.23615|0.24115|0.23615|0.22115|0.21615|0.22115|0.25615|0.26115|0.27115|0.28615|0.29615|0.33615|0.39115|0.44115|0.45115|0.46615|0.50115|0.51615|0.58115|0.60615|0.61615|0.61615|0.64615|0.68115|0.72615|0.77115|0.78115|0.77615|0.79115|0.82615|0.86615|0.89615|0.94115|0.97115|1.0061|1.0461|1.0911|1.1561|1.2011|1.2261|1.2761|1.3061|1.3561|1.3961|1.4361|1.4911|1.5411|1.5711|1.6211|1.6561|1.6711|1.6361|1.6111|1.5961|1.5611|1.5311|1.4711|1.4061|1.3361|1.2961|1.2511|1.2011|1.1411|1.0861|1.0311|1.0011|0.98115|0.95115|0.90615|0.86615|0.81615|0.78115|0.75615|0.72115|0.68115|0.63115|0.58115|0.55615|0.53115|0.51615|0.47615|0.43615|0.36615|0.35115|0.34615|0.32115|0.29615|0.24615|0.22115|0.21615|0.20115|0.19615|0.15615|0.11615|0.091147|0.086147|0.11115|0.096147|0.076147|0.056147|0.031147|0.026147|0.031147|0.021147|0.011147|0.016147|0.0011474|-0.0088526|-0.0038526|-0.0038526|-0.0038526|-0.018853|-0.053853|-0.043853|-0.038853|-0.028853|-0.048853|-0.048853|-0.058853|-0.083853|-0.078853|-0.053853|-0.073853|-0.078853|-0.10885|-0.10385|-0.083853|-0.073853|-0.088853|-0.12385|-0.12385|-0.11885|-0.098853|-0.098853|-0.11385|-0.12385|-0.12885|-0.11385|-0.098853|-0.088853|-0.10885|-0.12885|-0.14385|-0.14885|-0.11885|-0.12885|-0.13885|-0.15885|-0.17385|-0.15385|-0.13385|-0.12385|-0.13385|-0.15385|-0.17385|-0.15885|-0.14885|-0.14885|-0.15385|-0.17385|-0.16885|-0.17885|-0.15885|-0.15385|-0.16885|-0.18385|-0.16885|
-0.27385|-0.26885|-0.30385|-0.32385|-0.32385|-0.32385|-0.30385|-0.31885|-0.31885|-0.33885|-0.32385|-0.32885|-0.31385|-0.34885|-0.34885|-0.35385|-0.35885|-0.34885|-0.34885|-0.34385|-0.35885|-0.38385|-0.39385|-0.39385|-0.37385|-0.36885|-0.38885|-0.39385|-0.39385|-0.39385|-0.38385|-0.38885|-0.39385|-0.39385|-0.38385|-0.37885|-0.36885|-0.36885|-0.38385|-0.38885|-0.36885|-0.34385|-0.32385|-0.31385|-0.31385|-0.30885|-0.29385|-0.27885|-0.25885|-0.22885|-0.21885|-0.20885|-0.18885|-0.18385|-0.13885|-0.12885|-0.11385|-0.11885|-0.10385|-0.083853|-0.048853|-0.058853|-0.053853|-0.058853|-0.033853|-0.028853|-0.033853|-0.013853|-0.018853|-0.023853|-0.038853|-0.0088526|-0.0038526|0.026147|0.036147|0.056147|0.071147|0.14115|0.21115|0.25115|0.29115|0.32615|0.39615|0.47115|0.54615|0.59115|0.65115|0.69615|0.75615|0.81615|0.88615|0.93115|0.95615|0.98115|1.0061|1.0511|1.0811|1.0611|1.0111|0.89115|0.73115|0.51615|0.26615|0.031147|-0.19885|-0.41885|-0.60385|-0.76385|-0.90385|-1.0339|-1.1489|-1.2489|-1.3389|-1.3789|-1.3989|-1.4339|-1.4589|-1.4789|-1.5089|-1.5239|-1.5289|-1.5339|-1.5289|-1.5289|-1.5139|-1.4939|-1.4389|-1.3639|-1.2789|-1.1739|-1.0689|-0.94885|-0.82885|-0.72385|-0.63885|-0.57885|-0.53385|-0.49885|-0.45885|-0.42385|-0.37885|-0.32885|-0.29385|-0.22385|-0.17385|-0.13385|-0.11885|-0.088853|-0.073853|-0.018853|0.036147|0.056147|0.071147|0.086147|0.096147|0.13615|0.15615|0.18615|0.18115|0.17115|0.18615|0.20615|0.22615|0.22115|0.22115|0.22615|0.24615|0.29115|0.31615|0.35115|0.36615|0.36615|0.38115|0.41615|0.45615|0.48615|0.50615|0.51115|0.54615|0.57115|0.60615|0.63615|0.64615|0.66115|0.68115|0.72115|0.73615|0.76615|0.77615|0.79615|0.81615|0.86615|0.89615|0.92115|0.95115|0.97115|0.99615|1.0311|1.0761|1.1011|1.1061|1.1011|1.1111|1.1261|1.1411|1.1561|1.1711|1.1561|1.1561|1.1561|1.1711|1.1561|1.1011|1.0761|1.0361|1.0261|1.0111|0.95615|0.91615|0.85115|0.82115|0.79115|0.76615|0.73615|0.68615|0.64115|0.62115|0.60615|0.59615|0.56615|0.53615|0.51115|0.46615|0.46615|0.45615|0.41615|0.37115|0.33115|0.30115|0.29615|0.28615|0.24615|0.21615|0.19615|0.17615|0.15615|0.15615|0.14115|0.12115|0.091147|0.091147|0.10115|0.10115|0.081147|0.056147|0.021147|0.021147|0.016147|0.036147|0.026147|0.016147|0.0011474|-0.0088526|-0.0038526|-0.0038526|-0.013853|-0.023853|-0.038853|-0.048853|-0.033853|-0.038853|-0.048853|-0.068853|-0.078853|-0.073853|-0.063853|-0.048853|-0.058853|-0.083853|-0.093853|-0.093853|-0.078853|-0.058853|-0.063853|-0.078853|-0.098853|-0.10885|-0.098853|-0.093853|-0.10885|-0.12885|-0.13385|-0.12885|-0.12385|-0.10885|-0.12385|-0.13885|-0.15385|-0.15885|-0.12885|
-0.32385|-0.29385|-0.28385|-0.29385|-0.32385|-0.34885|-0.34885|-0.32885|-0.30885|-0.31885|-0.33885|-0.34385|-0.35885|-0.35885|-0.32885|-0.33385|-0.34385|-0.35385|-0.35385|-0.34385|-0.32885|-0.32385|-0.34885|-0.37385|-0.38385|-0.36385|-0.33385|-0.33885|-0.36885|-0.39385|-0.40385|-0.38885|-0.40885|-0.41885|-0.42385|-0.43385|-0.42885|-0.41885|-0.42385|-0.44385|-0.46885|-0.48385|-0.49385|-0.47385|-0.47885|-0.47885|-0.49385|-0.51385|-0.50385|-0.49885|-0.46885|-0.46385|-0.47885|-0.50385|-0.48885|-0.46385|-0.44385|-0.42885|-0.44885|-0.43385|-0.39885|-0.34385|-0.28885|-0.26385|-0.26385|-0.25885|-0.27885|-0.21385|-0.14885|-0.13385|-0.13885|-0.12385|-0.12885|-0.11385|-0.10385|-0.093853|-0.083853|-0.088853|-0.088853|-0.088853|-0.088853|-0.098853|-0.10885|-0.10385|-0.063853|-0.023853|0.016147|0.056147|0.076147|0.10615|0.15115|0.23115|0.34115|0.47615|0.59115|0.68615|0.81615|0.95615|1.0761|1.1661|1.2311|1.2761|1.3311|1.4011|1.4211|1.3861|1.2761|1.0461|0.73115|0.37115|0.011147|-0.28885|-0.57885|-0.84385|-1.0289|-1.1739|-1.2889|-1.3689|-1.4839|-1.5689|-1.6339|-1.6739|-1.6889|-1.7189|-1.7589|-1.7989|-1.8139|-1.7639|-1.7289|-1.7139|-1.6589|-1.4939|-1.2839|-1.0789|-0.90885|-0.79385|-0.73885|-0.73385|-0.70385|-0.66885|-0.62385|-0.57385|-0.50385|-0.43385|-0.35385|-0.26885|-0.18885|-0.12885|-0.10885|-0.12885|-0.13885|-0.083853|0.016147|0.076147|0.036147|0.011147|0.011147|0.066147|0.15115|0.21115|0.22115|0.23115|0.23615|0.26115|0.30615|0.34615|0.32615|0.30115|0.29115|0.31115|0.36615|0.38615|0.42615|0.45615|0.49615|0.56615|0.61615|0.63615|0.64115|0.63115|0.63615|0.70115|0.77115|0.84615|0.88615|0.88615|0.87115|0.88615|0.89615|0.90115|0.92615|0.96115|0.99115|1.0311|1.0761|1.0711|1.0661|1.0661|1.1011|1.1111|1.1211|1.1461|1.1411|1.1411|1.1361|1.1111|1.0911|1.0711|1.0261|0.96115|0.95115|0.92615|0.88615|0.83615|0.78115|0.71615|0.66115|0.61615|0.57615|0.52115|0.47615|0.44115|0.42115|0.37115|0.29115|0.26615|0.24615|0.19115|0.12615|0.11115|0.13115|0.13615|0.10115|0.041147|0.0011474|-0.013853|-0.0088526|0.011147|0.031147|0.016147|0.011147|0.0011474|0.011147|0.0011474|-0.0038526|-0.023853|-0.033853|-0.038853|-0.033853|-0.038853|-0.078853|-0.098853|-0.098853|-0.083853|-0.078853|-0.073853|-0.068853|-0.088853|-0.10385|-0.088853|-0.083853|-0.088853|-0.093853|-0.12385|-0.12385|-0.093853|-0.058853|-0.043853|-0.063853|-0.11385|-0.11885|-0.11385|-0.10385|-0.068853|-0.083853|-0.088853|-0.12885|-0.15885|-0.15885|-0.14885|-0.12885|-0.13885|-0.13385|-0.12385|-0.11885|-0.13385|-0.13385|-0.10885|-0.10885|-0.11385|-0.12385|-0.10385|-0.053853|-0.073853|-0.10885|-0.13385|-0.13385|-0.12385|-0.14885|-0.16385|
-0.37385|-0.39385|-0.41385|-0.41885|-0.41885|-0.41385|-0.42385|-0.44385|-0.43885|-0.45385|-0.46885|-0.47885|-0.47385|-0.51885|-0.53885|-0.52885|-0.50385|-0.50385|-0.50385|-0.51385|-0.49385|-0.47385|-0.44885|-0.45885|-0.46385|-0.44385|-0.40885|-0.37385|-0.35885|-0.36385|-0.35885|-0.35385|-0.31385|-0.27885|-0.25885|-0.24885|-0.22885|-0.20885|-0.17385|-0.12385|-0.093853|-0.063853|-0.028853|0.016147|0.041147|0.026147|0.016147|-0.0088526|-0.0038526|0.0061474|0.031147|0.041147|0.036147|0.026147|0.0061474|0.0061474|0.031147|0.046147|0.056147|0.036147|0.041147|0.036147|0.041147|0.041147|0.026147|0.041147|0.021147|0.031147|0.026147|0.021147|0.0061474|0.0011474|0.016147|0.026147|0.036147|0.041147|0.046147|0.026147|-0.0088526|-0.043853|-0.058853|-0.083853|-0.12385|-0.15385|-0.16385|-0.11885|-0.033853|0.10615|0.25615|0.40115|0.52615|0.63615|0.73115|0.82615|0.95115|1.0411|1.0411|0.93615|0.79615|0.67615|0.58615|0.50615|0.42615|0.35615|0.26615|0.18115|0.061147|-0.093853|-0.23885|-0.34385|-0.41385|-0.42885|-0.45885|-0.50385|-0.55885|-0.56385|-0.55885|-0.54385|-0.50385|-0.45885|-0.40885|-0.34885|-0.27385|-0.21385|-0.16385|-0.10885|-0.10385|-0.078853|-0.068853|-0.068853|-0.093853|-0.11385|-0.10885|-0.093853|-0.073853|-0.053853|-0.038853|-0.058853|-0.088853|-0.10385|-0.098853|-0.078853|-0.093853|-0.11385|-0.11885|-0.10385|-0.048853|0.016147|0.041147|0.031147|0.0011474|-0.038853|-0.043853|0.016147|0.041147|0.046147|0.016147|0.011147|0.026147|0.046147|0.071147|0.086147|0.076147|0.061147|0.076147|0.10615|0.12115|0.15615|0.16115|0.16115|0.18115|0.16115|0.17115|0.18115|0.22115|0.24115|0.29115|0.30615|0.33115|0.34615|0.36615|0.38115|0.39615|0.41615|0.42115|0.40615|0.38615|0.39115|0.45115|0.49615|0.51615|0.53115|0.53115|0.57115|0.58115|0.59115|0.60115|0.58115|0.57615|0.57115|0.58615|0.59115|0.57615|0.53115|0.48615|0.42615|0.41115|0.41115|0.41115|0.38115|0.34615|0.31615|0.29115|0.30615|0.30115|0.27615|0.22615|0.21615|0.18615|0.16615|0.13615|0.12615|0.11615|0.12115|0.11115|0.081147|0.041147|0.026147|0.041147|0.036147|0.041147|0.046147|0.041147|0.021147|0.0061474|0.016147|0.031147|0.021147|0.0061474|0.021147|0.021147|0.031147|0.026147|0.021147|0.0061474|-0.0088526|-0.013853|-0.018853|-0.0088526|-0.0038526|0.0061474|-0.0038526|0.0011474|-0.0088526|0.0011474|0.0061474|-0.018853|-0.033853|-0.073853|-0.038853|-0.013853|0.016147|0.021147|-0.023853|-0.063853|-0.058853|-0.058853|-0.043853|-0.048853|-0.068853|-0.078853|-0.083853|-0.038853|-0.033853|-0.058853|-0.098853|-0.10885|-0.078853|-0.053853|-0.053853|-0.083853|-0.10885|-0.10385|-0.088853|-0.078853|-0.068853|-0.083853|-0.093853|-0.12385|-0.16385|-0.14885|-0.10385|-0.068853|-0.088853|-0.10385|-0.13385|-0.13885|-0.14885|-0.11385|-0.088853|
-0.14885|-0.18885|-0.17885|-0.15885|-0.14385|-0.15385|-0.15885|-0.17885|-0.18885|-0.17385|-0.16385|-0.16385|-0.16885|-0.17385|-0.16385|-0.13885|-0.12885|-0.14385|-0.16385|-0.17885|-0.13885|-0.12385|-0.083853|-0.068853|-0.083853|-0.073853|-0.033853|0.0011474|0.026147|0.046147|0.041147|0.036147|0.061147|0.10115|0.13115|0.13615|0.13115|0.13115|0.14615|0.16615|0.19115|0.18615|0.16115|0.15615|0.16115|0.17615|0.19115|0.19115|0.18115|0.16615|0.17115|0.16615|0.18615|0.17615|0.17615|0.14615|0.15115|0.15615|0.17615|0.17115|0.14115|0.14115|0.15115|0.16615|0.16615|0.15115|0.12615|0.12115|0.13115|0.15115|0.15615|0.16115|0.14115|0.11615|0.11615|0.13115|0.14115|0.10115|0.091147|0.056147|0.026147|0.041147|0.061147|0.11115|0.19115|0.25615|0.36615|0.46615|0.61615|0.79115|1.0361|1.2861|1.5461|1.7811|1.8861|1.8911|1.8061|1.7061|1.6211|1.4861|1.3461|1.1561|1.0011|0.82615|0.64115|0.44615|0.27115|0.10115|-0.023853|-0.068853|-0.043853|0.026147|0.081147|0.081147|0.036147|0.011147|0.036147|0.056147|0.056147|0.026147|0.031147|0.021147|0.011147|0.036147|0.046147|0.026147|0.0011474|-0.023853|-0.038853|-0.028853|-0.013853|-0.0088526|-0.033853|-0.038853|-0.038853|-0.023853|0.011147|0.0061474|0.0061474|0.0061474|0.0061474|0.011147|0.041147|0.036147|0.0061474|-0.0038526|0.011147|0.016147|0.041147|0.021147|0.0011474|-0.018853|-0.018853|0.0011474|0.026147|0.031147|0.016147|-0.013853|-0.018853|0.011147|0.036147|0.031147|0.026147|0.026147|0.036147|0.046147|0.066147|0.066147|0.076147|0.071147|0.096147|0.11615|0.14615|0.16115|0.18115|0.20115|0.21115|0.23115|0.24615|0.26115|0.27615|0.30115|0.32615|0.36115|0.39115|0.41115|0.41615|0.40615|0.42115|0.43115|0.43115|0.40615|0.39115|0.37115|0.38115|0.38615|0.37615|0.36615|0.34615|0.32115|0.30615|0.30615|0.30615|0.28115|0.24615|0.23615|0.22115|0.23115|0.22615|0.21115|0.19615|0.18115|0.18615|0.19115|0.20115|0.18615|0.14615|0.12115|0.12115|0.14615|0.17115|0.16115|0.13615|0.11615|0.11615|0.12115|0.14115|0.15115|0.13115|0.10115|0.11115|0.10115|0.10615|0.071147|0.061147|0.071147|0.12115|0.14615|0.14115|0.14115|0.13115|0.11615|0.11615|0.10615|0.12615|0.11615|0.10115|0.11115|0.10615|0.11115|0.12115|0.10615|0.10115|0.081147|0.096147|0.12115|0.11115|0.096147|0.081147|0.081147|0.091147|0.10615|0.10615|0.091147|0.086147|0.091147|0.091147|0.091147|0.10615|0.10115|0.066147|0.066147|0.071147|0.081147|0.096147|0.10115|0.091147|0.081147|0.081147|0.086147|0.11115|0.12115|0.12115|0.11115|0.12115|0.096147|0.11115|0.10615|0.086147|0.071147|0.086147|0.086147|0.10615|0.10115|0.081147|0.066147|0.066147|0.096147|0.11115|0.096147|
-0.20385|-0.20385|-0.22385|-0.22385|-0.21385|-0.20385|-0.17885|-0.17885|-0.18885|-0.18385|-0.17385|-0.15385|-0.14385|-0.13885|-0.15385|-0.13885|-0.12385|-0.088853|-0.058853|-0.068853|-0.073853|-0.073853|-0.043853|-0.033853|-0.028853|-0.013853|-0.018853|-0.028853|-0.0088526|0.011147|0.016147|0.021147|0.016147|-0.0088526|0.0061474|0.036147|0.036147|0.026147|0.016147|-0.0038526|0.021147|0.041147|0.036147|0.046147|0.016147|0.026147|0.026147|0.066147|0.076147|0.061147|0.051147|0.056147|0.046147|0.081147|0.086147|0.076147|0.071147|0.066147|0.081147|0.10115|0.12115|0.11115|0.11115|0.11615|0.15615|0.18615|0.20615|0.21615|0.22615|0.26615|0.29615|0.34615|0.38615|0.42615|0.47615|0.52115|0.57615|0.65615|0.72115|0.78115|0.83615|0.89115|0.98115|1.0511|1.1161|1.1911|1.2461|1.3111|1.3961|1.4761|1.5461|1.6061|1.6411|1.6761|1.6961|1.7161|1.7361|1.6911|1.6361|1.5961|1.5411|1.4711|1.3811|1.2561|1.1311|1.0211|0.91615|0.82615|0.72115|0.61115|0.50615|0.42615|0.36115|0.31115|0.23115|0.16115|0.10115|0.046147|0.026147|-0.0088526|-0.053853|-0.088853|-0.14885|-0.17385|-0.19385|-0.20885|-0.23385|-0.26885|-0.31385|-0.33885|-0.34885|-0.36885|-0.37885|-0.40385|-0.43385|-0.46385|-0.45885|-0.46385|-0.49385|-0.49385|-0.50885|-0.53385|-0.53385|-0.53885|-0.52885|-0.54885|-0.57385|-0.58885|-0.59885|-0.59885|-0.58885|-0.60885|-0.62885|-0.64385|-0.65885|-0.64885|-0.65385|-0.68385|-0.70385|-0.72385|-0.73385|-0.72385|-0.74885|-0.76385|-0.78385|-0.80885|-0.80885|-0.82385|-0.82885|-0.84885|-0.87885|-0.89385|-0.90385|-0.88885|-0.89885|-0.91385|-0.93385|-0.94385|-0.93385|-0.92885|-0.92385|-0.94385|-0.94885|-0.95385|-0.94885|-0.93885|-0.92385|-0.92885|-0.94385|-0.93385|-0.91885|-0.88885|-0.87385|-0.86385|-0.85885|-0.85385|-0.82885|-0.79385|-0.76385|-0.74385|-0.72885|-0.70885|-0.68385|-0.63385|-0.62885|-0.60385|-0.57885|-0.54385|-0.50385|-0.46885|-0.42385|-0.39385|-0.38385|-0.35885|-0.32385|-0.28385|-0.24885|-0.23885|-0.21885|-0.20885|-0.17885|-0.14885|-0.12385|-0.10385|-0.11385|-0.11385|-0.093853|-0.068853|-0.063853|-0.073853|-0.083853|-0.078853|-0.078853|-0.033853|-0.023853|-0.033853|-0.028853|-0.038853|-0.038853|-0.023853|-0.028853|-0.023853|-0.033853|-0.028853|-0.018853|-0.0038526|0.0011474|-0.013853|-0.033853|-0.018853|-0.013853|0.0061474|0.011147|0.0061474|-0.0038526|-0.018853|-0.028853|-0.0038526|-0.013853|-0.0038526|-0.0088526|-0.013853|-0.0038526|0.0061474|0.021147|0.0011474|-0.0038526|-0.0088526|0.0061474|0.011147|0.026147|0.021147|0.0061474|0.0061474|0.0011474|0.011147|0.016147|0.021147|0.011147|0.0011474|0.016147|0.036147|0.041147|0.036147|0.011147|0.0011474|0.021147|0.026147|0.031147|0.021147|0.0011474|-0.0088526|0.0061474|0.016147|0.026147|0.016147|0.0011474|0.0061474|-0.0038526|0.016147|
-0.088853|-0.068853|-0.078853|-0.083853|-0.093853|-0.093853|-0.083853|-0.063853|-0.068853|-0.078853|-0.093853|-0.088853|-0.078853|-0.063853|-0.083853|-0.083853|-0.088853|-0.088853|-0.078853|-0.058853|-0.073853|-0.083853|-0.093853|-0.088853|-0.078853|-0.078853|-0.068853|-0.078853|-0.088853|-0.088853|-0.073853|-0.068853|-0.058853|-0.083853|-0.093853|-0.088853|-0.068853|-0.063853|-0.063853|-0.078853|-0.088853|-0.073853|-0.063853|-0.048853|-0.058853|-0.058853|-0.083853|-0.078853|-0.073853|-0.048853|-0.063853|-0.058853|-0.083853|-0.068853|-0.048853|-0.033853|-0.033853|-0.043853|-0.038853|-0.038853|-0.013853|-0.0088526|0.0011474|0.0011474|-0.0038526|0.016147|0.036147|0.071147|0.066147|0.081147|0.081147|0.096147|0.11615|0.12615|0.11115|0.096147|0.086147|0.061147|0.041147|0.016147|-0.013853|-0.078853|-0.14885|-0.20885|-0.26385|-0.31885|-0.41385|-0.49885|-0.57885|-0.65385|-0.71385|-0.75385|-0.83885|-0.89385|-0.94385|-0.97385|-0.98385|-0.97385|-0.99885|-1.0089|-1.0139|-0.99385|-0.95885|-0.92885|-0.91385|-0.89885|-0.88385|-0.85385|-0.81385|-0.77385|-0.73885|-0.72385|-0.70385|-0.68385|-0.62385|-0.57385|-0.53885|-0.51885|-0.48885|-0.45885|-0.40385|-0.34385|-0.32885|-0.29385|-0.26385|-0.22385|-0.17385|-0.11385|-0.093853|-0.068853|-0.048853|-0.013853|0.031147|0.071147|0.096147|0.096147|0.12115|0.15615|0.18615|0.21615|0.24115|0.25115|0.27615|0.29615|0.34115|0.37115|0.38115|0.39615|0.41615|0.43615|0.47615|0.51615|0.53115|0.54615|0.56115|0.58115|0.62615|0.65615|0.67615|0.68615|0.70615|0.72115|0.75615|0.80115|0.82615|0.83615|0.84615|0.87115|0.89615|0.95115|0.96115|0.97115|0.98615|0.98615|1.0311|1.0661|1.0511|1.0511|1.0461|1.0661|1.0761|1.0861|1.0811|1.0561|1.0411|1.0411|1.0511|1.0461|1.0361|1.0011|0.98115|0.97115|0.97115|0.97115|0.94115|0.91615|0.89115|0.86615|0.86115|0.84115|0.80615|0.76615|0.74615|0.72115|0.70115|0.68115|0.65615|0.60615|0.56615|0.55115|0.53615|0.51615|0.48115|0.44115|0.40115|0.38115|0.37115|0.35615|0.32115|0.28115|0.26115|0.22115|0.22615|0.21615|0.19615|0.16615|0.13115|0.13615|0.14115|0.12615|0.11615|0.081147|0.066147|0.056147|0.051147|0.061147|0.046147|0.021147|0.0061474|0.0061474|0.0061474|0.016147|0.0061474|-0.013853|-0.028853|-0.028853|-0.013853|-0.0038526|-0.018853|-0.028853|-0.053853|-0.068853|-0.043853|-0.058853|-0.038853|-0.053853|-0.083853|-0.083853|-0.073853|-0.063853|-0.073853|-0.078853|-0.093853|-0.088853|-0.093853|-0.073853|-0.078853|-0.10385|-0.11385|-0.11385|-0.10885|-0.088853|-0.088853|-0.11885|-0.12385|-0.12885|-0.10885|-0.10885|-0.11385|-0.12885|-0.12385|-0.12885|-0.12385|-0.11885|-0.12885|-0.14885|-0.14885|-0.14385|-0.13885|-0.13885|-0.13885|-0.14385|-0.15885|-0.15385|-0.14385|-0.14385|-0.13885|-0.14885|-0.17385|-0.15385|
-0.38885|-0.39385|-0.38885|-0.37885|-0.39385|-0.42385|-0.42385|-0.41885|-0.41885|-0.38385|-0.39385|-0.40385|-0.42885|-0.42885|-0.41385|-0.38385|-0.38385|-0.39385|-0.38385|-0.38885|-0.35885|-0.33385|-0.31885|-0.30885|-0.30885|-0.30885|-0.27885|-0.25885|-0.23885|-0.23385|-0.21885|-0.19885|-0.18385|-0.13385|-0.12385|-0.11385|-0.10885|-0.088853|-0.068853|-0.043853|-0.028853|-0.038853|-0.053853|-0.043853|-0.023853|0.0061474|-0.0038526|-0.0038526|-0.013853|-0.018853|-0.013853|-0.0088526|-0.013853|-0.023853|-0.028853|-0.038853|-0.038853|-0.023853|-0.028853|-0.028853|-0.043853|-0.033853|-0.023853|-0.023853|-0.028853|-0.048853|-0.053853|-0.033853|-0.013853|0.031147|0.046147|0.086147|0.13615|0.18615|0.25615|0.32615|0.41115|0.49615|0.58115|0.66615|0.79115|0.91115|1.0061|1.1061|1.2311|1.4111|1.6011|1.7611|1.9011|2.0511|2.1611|2.2961|2.4211|2.5261|2.5561|2.5761|2.5661|2.5661|2.5611|2.5361|2.4461|2.3161|2.1211|1.8461|1.4961|1.1411|0.81615|0.57115|0.39615|0.28615|0.20115|0.10115|0.0061474|-0.088853|-0.15885|-0.19385|-0.18885|-0.20885|-0.25385|-0.30385|-0.36885|-0.43385|-0.46385|-0.48885|-0.50885|-0.55885|-0.57385|-0.59385|-0.58385|-0.58885|-0.62385|-0.68385|-0.69385|-0.69385|-0.66885|-0.64385|-0.63885|-0.65885|-0.67885|-0.69885|-0.69885|-0.68385|-0.71385|-0.74385|-0.77385|-0.79885|-0.81385|-0.78885|-0.80385|-0.83385|-0.85385|-0.88885|-0.90885|-0.89885|-0.92385|-0.94885|-0.97885|-1.0089|-1.0139|-1.0139|-1.0239|-1.0489|-1.0789|-1.0889|-1.1039|-1.0939|-1.1189|-1.1189|-1.1189|-1.1089|-1.0989|-1.0739|-1.0789|-1.1039|-1.1089|-1.0789|-1.0489|-0.99885|-0.96885|-0.97385|-0.96385|-0.93885|-0.88385|-0.82885|-0.81385|-0.78885|-0.75885|-0.71385|-0.67385|-0.62385|-0.56885|-0.52385|-0.48885|-0.43385|-0.38385|-0.33385|-0.31885|-0.29885|-0.26885|-0.22885|-0.19385|-0.17385|-0.17385|-0.18385|-0.18385|-0.17385|-0.13885|-0.12385|-0.10385|-0.11385|-0.12885|-0.12385|-0.11885|-0.10385|-0.083853|-0.088853|-0.10385|-0.12385|-0.11385|-0.10885|-0.088853|-0.10385|-0.098853|-0.098853|-0.093853|-0.093853|-0.088853|-0.098853|-0.098853|-0.098853|-0.093853|-0.063853|-0.083853|-0.093853|-0.098853|-0.088853|-0.078853|-0.063853|-0.068853|-0.073853|-0.098853|-0.11885|-0.098853|-0.073853|-0.083853|-0.093853|-0.098853|-0.12385|-0.11385|-0.083853|-0.068853|-0.078853|-0.10385|-0.093853|-0.088853|-0.063853|-0.063853|-0.083853|-0.098853|-0.10385|-0.093853|-0.078853|-0.083853|-0.093853|-0.10885|-0.10385|-0.088853|-0.058853|-0.068853|-0.083853|-0.11385|-0.11385|-0.098853|-0.083853|-0.088853|-0.093853|-0.10385|-0.11885|-0.11385|-0.083853|-0.088853|-0.088853|-0.10385|-0.10885|-0.10385|-0.098853|-0.093853|-0.10385|-0.11385|-0.11885|-0.10885|-0.10385|-0.088853|-0.11885|-0.12885|-0.12885|-0.10885|-0.093853|-0.098853|-0.10885|
-0.29885|-0.30385|-0.32885|-0.30885|-0.29885|-0.30885|-0.31885|-0.33385|-0.33885|-0.35385|-0.34885|-0.33385|-0.34385|-0.36885|-0.39885|-0.38885|-0.37385|-0.35885|-0.35385|-0.36385|-0.39385|-0.40885|-0.41385|-0.39385|-0.40385|-0.41385|-0.42885|-0.42885|-0.43385|-0.42385|-0.43385|-0.45385|-0.44385|-0.44385|-0.43385|-0.41885|-0.44385|-0.43385|-0.45385|-0.42385|-0.40385|-0.36885|-0.35385|-0.35885|-0.36385|-0.34885|-0.31385|-0.26385|-0.24385|-0.21385|-0.21385|-0.18885|-0.16885|-0.13885|-0.12385|-0.10385|-0.093853|-0.088853|-0.083853|-0.048853|-0.043853|-0.053853|-0.048853|-0.033853|-0.018853|-0.0038526|-0.023853|-0.028853|-0.033853|-0.038853|-0.013853|-0.013853|-0.023853|-0.023853|-0.033853|-0.023853|0.016147|0.066147|0.086147|0.12115|0.17115|0.24115|0.34615|0.47115|0.57615|0.68115|0.76115|0.87115|0.99115|1.0961|1.2111|1.2961|1.3661|1.4411|1.5161|1.5561|1.5661|1.5311|1.4511|1.3011|1.0761|0.83615|0.57115|0.30115|0.026147|-0.24885|-0.51885|-0.76885|-0.98385|-1.1739|-1.3239|-1.4439|-1.5439|-1.6039|-1.6789|-1.7489|-1.7989|-1.8239|-1.8489|-1.8139|-1.8239|-1.8289|-1.8389|-1.8589|-1.8289|-1.7939|-1.7189|-1.5939|-1.4339|-1.2539|-1.0739|-0.95385|-0.83885|-0.76885|-0.70385|-0.67385|-0.62885|-0.58385|-0.56885|-0.56885|-0.55885|-0.53885|-0.46385|-0.39385|-0.34385|-0.28385|-0.24885|-0.19885|-0.15885|-0.093853|-0.058853|-0.023853|-0.0088526|0.021147|0.086147|0.12115|0.13115|0.14115|0.14115|0.15615|0.17615|0.19615|0.21115|0.19615|0.19615|0.22615|0.28615|0.34615|0.37115|0.38115|0.36615|0.39615|0.44115|0.50115|0.52615|0.52115|0.53615|0.54615|0.58615|0.62115|0.65615|0.65615|0.67615|0.71115|0.75615|0.79115|0.82615|0.83615|0.85115|0.90115|0.95115|0.98115|1.0061|1.0311|1.0511|1.0661|1.1111|1.1511|1.1811|1.1811|1.1761|1.1861|1.2211|1.2411|1.2611|1.2661|1.2561|1.2561|1.2611|1.2711|1.2561|1.2361|1.2111|1.1811|1.1461|1.1511|1.1111|1.0961|1.0761|1.0461|1.0311|0.98615|0.92615|0.86115|0.81115|0.77615|0.75115|0.71615|0.65115|0.59615|0.53115|0.49115|0.47615|0.46115|0.41615|0.37615|0.32115|0.29115|0.27115|0.25115|0.23615|0.19615|0.16115|0.12615|0.10115|0.081147|0.071147|0.031147|0.011147|0.0011474|-0.013853|-0.0038526|-0.018853|-0.043853|-0.083853|-0.093853|-0.088853|-0.073853|-0.073853|-0.088853|-0.098853|-0.13385|-0.11385|-0.11385|-0.10885|-0.12385|-0.12385|-0.15385|-0.14885|-0.13385|-0.14885|-0.14385|-0.15385|-0.16885|-0.14885|-0.15385|-0.16885|-0.18885|-0.20385|-0.19885|-0.18385|-0.18385|-0.18885|-0.20385|-0.20885|-0.20885|-0.19885|-0.18385|-0.19385|-0.21385|-0.25385|-0.24885|-0.22885|-0.20885|-0.19885|-0.22385|-0.24885|-0.25385|-0.24885|-0.23885|
-0.21885|-0.22885|-0.21885|-0.23385|-0.23385|-0.23885|-0.21885|-0.23885|-0.25885|-0.26885|-0.26885|-0.26885|-0.25885|-0.25385|-0.25885|-0.30885|-0.29385|-0.28885|-0.28385|-0.30385|-0.32385|-0.34885|-0.35885|-0.35885|-0.34885|-0.32885|-0.34885|-0.35885|-0.37385|-0.38385|-0.35885|-0.36385|-0.36885|-0.36885|-0.37385|-0.37885|-0.35885|-0.36885|-0.37885|-0.40885|-0.38385|-0.36385|-0.35885|-0.34885|-0.35885|-0.36885|-0.35385|-0.32885|-0.31885|-0.27885|-0.24885|-0.24385|-0.22885|-0.18885|-0.14385|-0.10885|-0.10885|-0.078853|-0.058853|-0.033853|-0.013853|-0.0088526|0.0011474|0.016147|0.041147|0.056147|0.066147|0.071147|0.061147|0.051147|0.051147|0.071147|0.091147|0.076147|0.081147|0.061147|0.061147|0.061147|0.091147|0.11115|0.12115|0.12615|0.14115|0.22115|0.30115|0.38615|0.47615|0.59115|0.72615|0.88615|1.0211|1.1611|1.2861|1.3911|1.4761|1.5511|1.6061|1.5561|1.3911|1.1261|0.78615|0.43615|0.13615|-0.11385|-0.34385|-0.56385|-0.75885|-0.93885|-1.1039|-1.2789|-1.4539|-1.5889|-1.6739|-1.7189|-1.7339|-1.7739|-1.7789|-1.8239|-1.8439|-1.8539|-1.8139|-1.8039|-1.7939|-1.7689|-1.7239|-1.6439|-1.5239|-1.3989|-1.2389|-1.0689|-0.92385|-0.75385|-0.66385|-0.58385|-0.52385|-0.48885|-0.45385|-0.41885|-0.34885|-0.30385|-0.25885|-0.20885|-0.15385|-0.083853|-0.043853|0.011147|0.016147|0.036147|0.091147|0.15115|0.23115|0.29615|0.30115|0.32615|0.34615|0.37115|0.41115|0.41115|0.42115|0.45115|0.46115|0.50615|0.56615|0.59615|0.63615|0.66615|0.69615|0.73615|0.79615|0.83115|0.86615|0.88615|0.91615|0.96115|0.99615|1.0511|1.0811|1.1011|1.1311|1.1661|1.1861|1.2111|1.2161|1.2361|1.2861|1.3061|1.3661|1.3761|1.3961|1.4061|1.4161|1.4511|1.4561|1.4761|1.4661|1.4511|1.4461|1.4661|1.4711|1.4511|1.4411|1.3861|1.3661|1.3511|1.3261|1.2861|1.2311|1.1961|1.1411|1.0811|1.0661|1.0161|0.95615|0.92115|0.86115|0.82615|0.81115|0.78115|0.73115|0.68115|0.62115|0.58615|0.55115|0.50615|0.46615|0.41615|0.37615|0.35115|0.33115|0.29615|0.26115|0.23115|0.22615|0.21615|0.21115|0.18115|0.16615|0.15615|0.13615|0.14115|0.14115|0.12615|0.12115|0.091147|0.081147|0.096147|0.11115|0.10615|0.10115|0.071147|0.061147|0.066147|0.076147|0.081147|0.076147|0.061147|0.061147|0.061147|0.061147|0.046147|0.036147|0.021147|0.031147|0.041147|0.046147|0.026147|0.011147|0.0011474|-0.013853|0.011147|0.026147|0.026147|0.011147|-0.0088526|-0.013853|-0.0088526|-0.0038526|0.0061474|-0.0038526|-0.023853|-0.028853|-0.028853|-0.013853|-0.028853|-0.013853|-0.043853|-0.023853|-0.023853|-0.028853|-0.023853|-0.038853|-0.038853|-0.043853|-0.038853|-0.018853|-0.033853|-0.048853|-0.068853|-0.063853|-0.058853|
-0.28885|-0.30385|-0.31385|-0.30385|-0.27385|-0.26385|-0.28885|-0.31885|-0.33885|-0.34885|-0.34385|-0.33385|-0.33885|-0.36385|-0.37385|-0.36885|-0.36885|-0.37885|-0.37885|-0.40385|-0.42885|-0.42885|-0.44385|-0.43885|-0.43885|-0.45885|-0.46885|-0.47385|-0.47385|-0.48385|-0.50885|-0.52885|-0.53885|-0.52885|-0.52885|-0.52885|-0.55885|-0.56385|-0.56385|-0.53385|-0.51385|-0.51385|-0.52385|-0.53385|-0.50885|-0.47885|-0.44385|-0.40385|-0.40385|-0.37885|-0.36385|-0.31885|-0.27385|-0.24385|-0.23885|-0.21885|-0.22385|-0.19385|-0.16385|-0.12385|-0.11385|-0.10385|-0.11385|-0.10885|-0.068853|-0.043853|-0.043853|-0.053853|-0.078853|-0.063853|-0.058853|-0.043853|-0.043853|-0.058853|-0.058853|-0.053853|-0.058853|-0.033853|-0.033853|-0.048853|-0.048853|-0.0088526|0.041147|0.096147|0.15615|0.23115|0.31615|0.43115|0.49615|0.59115|0.67615|0.77115|0.90615|1.0311|1.1611|1.2411|1.2961|1.2861|1.2511|1.0961|0.86615|0.55115|0.20615|-0.11385|-0.38385|-0.60385|-0.78385|-0.93885|-1.0489|-1.1639|-1.2739|-1.3689|-1.4439|-1.5489|-1.6439|-1.7189|-1.7739|-1.8139|-1.8389|-1.8689|-1.8689|-1.8639|-1.8189|-1.7539|-1.6489|-1.5139|-1.3589|-1.1889|-1.0639|-0.93885|-0.85885|-0.81385|-0.77385|-0.75885|-0.71385|-0.66385|-0.61385|-0.55385|-0.49385|-0.44385|-0.38385|-0.31885|-0.25385|-0.21385|-0.19885|-0.17385|-0.12385|-0.058853|-0.0038526|0.056147|0.081147|0.086147|0.10115|0.11615|0.14615|0.17615|0.20115|0.22615|0.23115|0.25115|0.28615|0.30615|0.33115|0.36115|0.36115|0.41115|0.44115|0.47615|0.49115|0.52115|0.53115|0.56615|0.61115|0.63615|0.66615|0.68115|0.70615|0.73115|0.78615|0.81615|0.81615|0.83615|0.84615|0.87615|0.91615|0.94115|0.97115|0.99615|1.0061|1.0211|1.0661|1.1011|1.1011|1.1011|1.1211|1.1361|1.1511|1.1461|1.1361|1.1111|1.1111|1.1261|1.1211|1.0911|1.0711|1.0461|1.0211|0.99115|0.96615|0.94615|0.90615|0.87115|0.86115|0.83115|0.81115|0.77115|0.73115|0.68115|0.63115|0.59615|0.57115|0.54115|0.50115|0.44115|0.38115|0.33615|0.32615|0.31115|0.27115|0.22615|0.19115|0.15615|0.15115|0.15615|0.12615|0.11615|0.091147|0.081147|0.056147|0.061147|0.046147|0.016147|0.011147|0.021147|0.011147|0.0061474|-0.023853|-0.058853|-0.048853|-0.033853|-0.013853|-0.033853|-0.038853|-0.048853|-0.033853|-0.0038526|0.061147|0.12115|0.17615|0.23115|0.28615|0.37615|0.44615|0.48615|0.52615|0.52115|0.52615|0.52615|0.49115|0.46115|0.40615|0.35615|0.27115|0.056147|-0.31385|-0.74385|-1.1389|-1.4439|-1.6439|-1.7789|-1.8739|-1.9489|-2.0139|-2.0639|-2.0739|-2.0439|-2.0039|-1.9839|-1.9789|-1.9839|-1.9789|-1.9339|-1.8439|-1.7389|-1.6739|-1.6239|-1.5689|-1.4839|-1.4139|-1.3439|
0.61115|0.63615|0.66615|0.68115|0.70615|0.73115|0.78615|0.81615|0.81615|0.83615|0.84615|0.87615|0.91615|0.94115|0.97115|0.99615|1.0061|1.0211|1.0661|1.1011|1.1011|1.1011|1.1211|1.1361|1.1511|1.1461|1.1361|1.1111|1.1111|1.1261|1.1211|1.0911|1.0711|1.0461|1.0211|0.99115|0.96615|0.94615|0.90615|0.87115|0.86115|0.83115|0.81115|0.77115|0.73115|0.68115|0.63115|0.59615|0.57115|0.54115|0.50115|0.44115|0.38115|0.33615|0.32615|0.31115|0.27115|0.22615|0.19115|0.15615|0.15115|0.15615|0.12615|0.11615|0.091147|0.081147|0.056147|0.061147|0.046147|0.016147|0.011147|0.021147|0.011147|0.0061474|-0.023853|-0.058853|-0.048853|-0.033853|-0.013853|-0.033853|-0.038853|-0.048853|-0.033853|-0.0038526|0.061147|0.12115|0.17615|0.23115|0.28615|0.37615|0.44615|0.48615|0.52615|0.52115|0.52615|0.52615|0.49115|0.46115|0.40615|0.35615|0.27115|0.056147|-0.31385|-0.74385|-1.1389|-1.4439|-1.6439|-1.7789|-1.8739|-1.9489|-2.0139|-2.0639|-2.0739|-2.0439|-2.0039|-1.9839|-1.9789|-1.9839|-1.9789|-1.9339|-1.8439|-1.7389|-1.6739|-1.6239|-1.5689|-1.4839|-1.4139|-1.3439|-1.2739|-1.2289|-1.1739|-1.0789|-0.98385|-0.91385|-0.87385|-0.85385|-0.80885|-0.75885|-0.67385|-0.58885|-0.50385|-0.43885|-0.35885|-0.24385|-0.14885|-0.043853|0.011147|0.036147|0.076147|0.13615|0.18615|0.20615|0.21615|0.22615|0.25615|0.31115|0.36115|0.40115|0.41115|0.42115|0.44115|0.51115|0.57615|0.63615|0.65115|0.66615|0.69615|0.74115|0.79615|0.83615|0.86115|0.86115|0.90115|0.94115|0.98115|1.0361|1.0811|1.1211|1.1561|1.1911|1.2461|1.2961|1.3411|1.3761|1.4011|1.4511|1.4861|1.5411|1.5661|1.5811|1.6161|1.6261|1.6561|1.6711|1.6611|1.6461|1.6311|1.6411|1.6361|1.6261|1.6011|1.5561|1.5111|1.4961|1.4911|1.4511|1.4061|1.3611|1.2911|1.2711|1.2361|1.2161|1.1561|1.0961|1.0261|0.97615|0.92115|0.87115|0.80115|0.74115|0.69115|0.64615|0.61115|0.56615|0.51115|0.44115|0.41115|0.37615|0.36115|0.34115|0.32115|0.26115|0.22115|0.18615|0.17115|0.15115|0.12115|0.091147|0.071147|0.061147|0.051147|0.046147|0.041147|0.0061474|-0.028853|-0.013853|-0.023853|-0.018853|-0.038853|-0.043853|-0.053853|-0.048853|-0.053853|-0.058853|-0.078853|-0.083853|-0.088853|-0.093853|-0.073853|-0.078853|-0.10385|-0.11885|-0.12885|-0.11385|-0.093853|-0.083853|-0.11385|-0.12385|-0.14385|-0.13885|-0.12885|-0.12885|-0.13885|-0.15385|-0.15885|-0.16885|-0.15385|-0.14385|-0.15885|-0.15885|-0.17885|-0.17885|-0.17385|-0.16885|-0.17885|-0.19385|-0.21385|-0.20885|-0.19885|-0.18385|-0.20885|-0.20385|-0.21385|-0.20885|-0.18885|-0.18885|-0.19385|-0.20885|-0.22885|-0.22885|
-0.24885|-0.23885|-0.21885|-0.20885|-0.24885|-0.25885|-0.26385|-0.22385|-0.20885|-0.19885|-0.22885|-0.24385|-0.25385|-0.25385|-0.23885|-0.22885|-0.24385|-0.25885|-0.25885|-0.24885|-0.24385|-0.25385|-0.27885|-0.29385|-0.28885|-0.28385|-0.27385|-0.26885|-0.29385|-0.31385|-0.32385|-0.31385|-0.30885|-0.31885|-0.32885|-0.33885|-0.34385|-0.32385|-0.32385|-0.32885|-0.33885|-0.34385|-0.34385|-0.35385|-0.31885|-0.29885|-0.30885|-0.34385|-0.34385|-0.33885|-0.31385|-0.28385|-0.27885|-0.26385|-0.24885|-0.23385|-0.18885|-0.15885|-0.13885|-0.15385|-0.14385|-0.10885|-0.073853|-0.068853|-0.063853|-0.058853|-0.043853|-0.053853|-0.023853|-0.043853|-0.043853|-0.048853|-0.038853|0.0011474|0.0011474|-0.013853|-0.028853|-0.023853|-0.048853|-0.023853|0.0061474|-0.0038526|0.011147|0.021147|0.086147|0.17115|0.27615|0.39115|0.52615|0.66115|0.77615|0.90615|1.0311|1.1361|1.2111|1.2561|1.2661|1.2861|1.2811|1.1811|0.94115|0.62615|0.25115|-0.11885|-0.43885|-0.73385|-0.95385|-1.1239|-1.2489|-1.3589|-1.4489|-1.5589|-1.5889|-1.6339|-1.6489|-1.6589|-1.6589|-1.6889|-1.7039|-1.7189|-1.6939|-1.6339|-1.5339|-1.4189|-1.2739|-1.1339|-0.98885|-0.84885|-0.73385|-0.66885|-0.62885|-0.59385|-0.57885|-0.54885|-0.50885|-0.48385|-0.44885|-0.41385|-0.35385|-0.28385|-0.20385|-0.14385|-0.11385|-0.083853|-0.043853|0.0061474|0.091147|0.11615|0.14615|0.13615|0.13615|0.17115|0.20115|0.20615|0.20115|0.18115|0.20115|0.24115|0.31615|0.34615|0.39115|0.40115|0.43115|0.47115|0.50615|0.51615|0.53115|0.54615|0.57615|0.62615|0.68115|0.71115|0.71615|0.72115|0.73615|0.78615|0.81115|0.84615|0.87615|0.89615|0.91615|0.95615|1.0011|1.0361|1.0561|1.0711|1.0761|1.0861|1.1111|1.1361|1.1311|1.1311|1.1561|1.1661|1.1811|1.1611|1.1511|1.1311|1.1461|1.1511|1.1461|1.1311|1.0811|1.0461|1.0211|1.0011|0.98615|0.96615|0.90615|0.86115|0.81615|0.78115|0.78115|0.75615|0.72115|0.67615|0.64615|0.61115|0.59115|0.53115|0.49615|0.43115|0.37615|0.35115|0.32615|0.30115|0.25115|0.22115|0.19615|0.20115|0.16615|0.14115|0.096147|0.061147|0.051147|0.076147|0.091147|0.081147|0.056147|0.041147|0.016147|0.0061474|0.036147|0.021147|0.0011474|-0.038853|-0.078853|-0.068853|-0.053853|-0.028853|-0.048853|-0.063853|-0.068853|-0.048853|-0.043853|-0.048853|-0.063853|-0.073853|-0.073853|-0.063853|-0.053853|-0.053853|-0.078853|-0.10385|-0.10885|-0.093853|-0.083853|-0.093853|-0.098853|-0.11385|-0.11385|-0.10885|-0.10385|-0.10385|-0.10885|-0.10885|-0.11385|-0.11385|-0.093853|-0.098853|-0.10385|-0.11885|-0.13385|-0.12885|-0.10885|-0.098853|-0.12885|-0.12885|-0.14885|-0.12885|-0.11885|-0.12385|-0.15385|-0.16885|-0.17885|-0.15885|-0.12885|-0.12385|-0.14385|-0.15385|
-0.26885|-0.25885|-0.23885|-0.24885|-0.24385|-0.26385|-0.25885|-0.26385|-0.25385|-0.25885|-0.27385|-0.26885|-0.27385|-0.25385|-0.25385|-0.26885|-0.28385|-0.29885|-0.28885|-0.26385|-0.27385|-0.28385|-0.29385|-0.29885|-0.30385|-0.27885|-0.27385|-0.27385|-0.28385|-0.29885|-0.29885|-0.29385|-0.28385|-0.27385|-0.28385|-0.30385|-0.28385|-0.27885|-0.25385|-0.24885|-0.25385|-0.26885|-0.26385|-0.24885|-0.23385|-0.21385|-0.21885|-0.21885|-0.20885|-0.16885|-0.14385|-0.12385|-0.12885|-0.11885|-0.10385|-0.098853|-0.063853|-0.053853|-0.058853|-0.048853|-0.053853|-0.028853|-0.018853|-0.028853|-0.038853|-0.058853|-0.048853|-0.023853|0.0011474|-0.0038526|-0.033853|-0.043853|-0.043853|-0.023853|-0.0038526|-0.0038526|-0.0088526|-0.028853|-0.013853|0.0061474|0.046147|0.096147|0.14115|0.21615|0.28115|0.38615|0.48615|0.56115|0.63115|0.70115|0.77115|0.88115|0.98615|1.0811|1.1461|1.1811|1.2211|1.2111|1.1561|0.99115|0.72615|0.41115|0.081147|-0.20885|-0.51385|-0.76385|-0.96885|-1.1139|-1.2189|-1.2989|-1.3739|-1.4539|-1.5489|-1.6189|-1.6739|-1.6689|-1.6739|-1.6739|-1.6789|-1.7039|-1.7139|-1.7039|-1.6839|-1.6739|-1.6589|-1.6389|-1.5989|-1.5339|-1.4489|-1.3789|-1.3039|-1.2389|-1.1539|-1.0439|-0.92885|-0.83385|-0.74385|-0.68385|-0.63885|-0.57885|-0.54885|-0.52885|-0.50885|-0.49385|-0.46385|-0.41885|-0.33885|-0.28885|-0.23385|-0.17385|-0.10885|-0.078853|-0.033853|-0.013853|0.0061474|0.021147|0.066147|0.11615|0.15615|0.18115|0.17615|0.16615|0.18115|0.20115|0.23115|0.22115|0.24115|0.24615|0.28615|0.32115|0.36115|0.39115|0.39115|0.41115|0.43115|0.46615|0.50115|0.50615|0.52615|0.54115|0.56615|0.60115|0.65115|0.67115|0.68615|0.69115|0.72115|0.75615|0.80615|0.83115|0.83115|0.84115|0.85615|0.88615|0.90615|0.94115|0.94115|0.94615|0.97615|1.0161|1.0411|1.0561|1.0711|1.0661|1.0911|1.1061|1.1411|1.1711|1.1561|1.1511|1.1511|1.1761|1.1861|1.1911|1.1811|1.1711|1.1711|1.1861|1.1761|1.1311|1.1161|1.0811|1.0411|1.0261|1.0261|0.98115|0.91615|0.88115|0.84115|0.82615|0.80115|0.75615|0.71115|0.66615|0.63615|0.60615|0.59115|0.55115|0.50615|0.45115|0.41115|0.37615|0.34115|0.31615|0.27615|0.23115|0.20115|0.18615|0.18115|0.15615|0.12615|0.10615|0.086147|0.096147|0.096147|0.081147|0.046147|0.021147|0.016147|0.021147|0.036147|0.016147|-0.0038526|-0.033853|-0.028853|-0.023853|-0.0088526|-0.0088526|-0.018853|-0.043853|-0.043853|-0.028853|-0.028853|-0.028853|-0.053853|-0.058853|-0.073853|-0.048853|-0.043853|-0.043853|-0.053853|-0.078853|-0.093853|-0.063853|-0.048853|-0.063853|-0.063853|-0.10885|-0.10385|-0.10885|-0.078853|-0.073853|-0.088853|-0.098853|-0.10885|-0.10385|-0.10385|-0.098853|-0.10885|-0.10885|
-0.15885|-0.15385|-0.16885|-0.19385|-0.19885|-0.18885|-0.19885|-0.17885|-0.18885|-0.18885|-0.19385|-0.19385|-0.17885|-0.17885|-0.19385|-0.20885|-0.21885|-0.20885|-0.18385|-0.16885|-0.17385|-0.18885|-0.20385|-0.22885|-0.20885|-0.18385|-0.18385|-0.20885|-0.22885|-0.23385|-0.21885|-0.21885|-0.20885|-0.21885|-0.23885|-0.24885|-0.23385|-0.24385|-0.22885|-0.24885|-0.24385|-0.24385|-0.24885|-0.23385|-0.23385|-0.24385|-0.25385|-0.25885|-0.25385|-0.23885|-0.23385|-0.25385|-0.24885|-0.23885|-0.20885|-0.18885|-0.18385|-0.17885|-0.16385|-0.13385|-0.12385|-0.093853|-0.093853|-0.078853|-0.083853|-0.058853|-0.018853|0.0011474|0.0011474|-0.0088526|-0.013853|-0.0038526|0.016147|0.021147|0.031147|0.021147|0.0061474|0.016147|0.021147|0.046147|0.031147|0.036147|0.036147|0.086147|0.14115|0.23115|0.34115|0.44615|0.56115|0.69615|0.84615|0.97615|1.0761|1.1511|1.2111|1.2761|1.3211|1.3561|1.3061|1.1211|0.78615|0.40115|0.0061474|-0.37385|-0.72385|-0.98885|-1.1689|-1.2939|-1.3839|-1.4589|-1.5439|-1.5789|-1.6089|-1.6039|-1.5589|-1.5439|-1.5439|-1.5039|-1.4489|-1.3639|-1.2539|-1.0989|-0.94385|-0.80885|-0.72385|-0.66385|-0.60885|-0.52885|-0.50385|-0.49385|-0.48885|-0.47385|-0.44385|-0.39885|-0.33885|-0.29885|-0.23885|-0.15885|-0.098853|-0.053853|-0.018853|-0.0088526|0.026147|0.056147|0.096147|0.14115|0.15115|0.14115|0.15615|0.18115|0.20115|0.23615|0.23115|0.23115|0.25115|0.27615|0.31615|0.37615|0.41115|0.42115|0.42615|0.46615|0.48615|0.52615|0.55115|0.57115|0.58615|0.61615|0.64615|0.70115|0.71615|0.73615|0.76615|0.79115|0.81615|0.84115|0.87615|0.89115|0.91115|0.95115|1.0061|1.0361|1.0461|1.0661|1.0661|1.1011|1.1511|1.1561|1.1711|1.1561|1.1561|1.1461|1.1761|1.1811|1.1561|1.1361|1.1061|1.0961|1.0811|1.0761|1.0561|1.0161|0.97115|0.94115|0.92615|0.91615|0.88115|0.83115|0.80115|0.75615|0.71115|0.70115|0.65615|0.61115|0.56115|0.52115|0.48615|0.44615|0.42115|0.37115|0.34615|0.31115|0.31615|0.31115|0.28115|0.23115|0.19115|0.16115|0.15615|0.16615|0.15115|0.13615|0.096147|0.076147|0.071147|0.081147|0.076147|0.066147|0.051147|0.041147|0.046147|0.041147|0.046147|0.021147|-0.0088526|0.016147|0.016147|0.026147|0.016147|-0.0088526|-0.028853|-0.028853|-0.0038526|0.0011474|-0.0038526|-0.018853|-0.038853|-0.053853|-0.033853|-0.018853|-0.023853|-0.038853|-0.053853|-0.063853|-0.068853|-0.048853|-0.053853|-0.048853|-0.083853|-0.078853|-0.073853|-0.053853|-0.068853|-0.078853|-0.088853|-0.088853|-0.078853|-0.073853|-0.078853|-0.098853|-0.10885|-0.10885|-0.093853|-0.068853|-0.083853|-0.10885|-0.13385|-0.13385|-0.11885|-0.098853|-0.093853|-0.10885|-0.12385|-0.12885|-0.10885|-0.098853|-0.10385|-0.10385|-0.10885|-0.12385|
-0.22885|-0.22885|-0.22385|-0.21885|-0.21885|-0.21885|-0.24385|-0.23885|-0.22885|-0.20885|-0.21385|-0.21885|-0.23885|-0.25885|-0.23385|-0.22885|-0.23385|-0.23385|-0.25885|-0.25385|-0.24885|-0.24885|-0.24885|-0.26385|-0.27385|-0.26385|-0.27885|-0.25385|-0.24885|-0.26385|-0.28885|-0.29385|-0.27885|-0.25385|-0.25885|-0.25885|-0.27385|-0.27385|-0.26385|-0.24885|-0.24385|-0.24385|-0.24885|-0.26385|-0.23385|-0.22885|-0.20885|-0.22885|-0.20885|-0.20385|-0.17385|-0.14885|-0.13885|-0.13885|-0.13385|-0.11385|-0.093853|-0.058853|-0.038853|-0.043853|-0.053853|-0.048853|-0.028853|-0.023853|-0.0088526|-0.018853|-0.023853|-0.028853|-0.023853|0.0011474|-0.0088526|-0.013853|0.0011474|0.0061474|0.016147|0.011147|0.0011474|0.0011474|0.011147|0.051147|0.11115|0.15115|0.19615|0.25115|0.30115|0.38115|0.48615|0.60615|0.71615|0.82615|0.88615|0.98115|1.0761|1.1711|1.2461|1.2811|1.2911|1.2861|1.2211|1.0961|0.88115|0.61615|0.38115|0.14115|-0.10885|-0.35885|-0.60385|-0.83885|-1.0339|-1.1639|-1.2839|-1.3839|-1.4939|-1.5839|-1.6389|-1.6439|-1.6539|-1.6489|-1.6539|-1.6789|-1.6989|-1.7089|-1.6939|-1.6639|-1.6439|-1.6289|-1.6089|-1.5839|-1.4839|-1.3489|-1.2039|-1.0739|-0.95385|-0.86385|-0.74385|-0.64885|-0.58885|-0.55885|-0.54385|-0.51885|-0.49885|-0.48885|-0.47385|-0.44885|-0.42885|-0.36885|-0.30885|-0.24385|-0.18385|-0.14385|-0.11385|-0.063853|-0.013853|0.036147|0.076147|0.096147|0.096147|0.11115|0.14115|0.17615|0.20115|0.21115|0.21115|0.21115|0.21615|0.25615|0.31115|0.34115|0.35115|0.37615|0.41615|0.44615|0.46115|0.47115|0.48615|0.51615|0.54615|0.58115|0.61115|0.61615|0.61115|0.64615|0.67615|0.72115|0.76115|0.76115|0.77115|0.81615|0.83615|0.86115|0.91615|0.92615|0.93615|0.94615|0.99115|1.0261|1.0411|1.0561|1.0511|1.0711|1.1011|1.1361|1.1461|1.1561|1.1461|1.1611|1.1761|1.2011|1.2111|1.2061|1.1911|1.1811|1.1861|1.1811|1.1661|1.1411|1.0911|1.0661|1.0411|1.0311|0.98615|0.93615|0.89615|0.85115|0.83615|0.78115|0.74115|0.68615|0.66115|0.62115|0.59615|0.58115|0.54115|0.48115|0.42615|0.38615|0.36615|0.35115|0.31615|0.27115|0.23115|0.19615|0.17615|0.17615|0.16115|0.14615|0.10615|0.081147|0.081147|0.091147|0.076147|0.051147|0.031147|0.016147|0.011147|0.0061474|0.0061474|-0.018853|-0.038853|-0.033853|-0.018853|-0.013853|-0.028853|-0.038853|-0.058853|-0.078853|-0.058853|-0.033853|-0.038853|-0.053853|-0.068853|-0.068853|-0.073853|-0.058853|-0.058853|-0.078853|-0.093853|-0.11385|-0.093853|-0.083853|-0.093853|-0.11385|-0.11885|-0.12385|-0.10885|-0.098853|-0.093853|-0.12385|-0.13885|-0.13885|-0.11885|-0.10385|-0.10885|-0.12385|-0.14885|-0.14385|-0.13385|-0.11885|-0.12385|-0.13885|
-0.16385|-0.15385|-0.15885|-0.17385|-0.17885|-0.17385|-0.16385|-0.15385|-0.16885|-0.18885|-0.20885|-0.20885|-0.18885|-0.17385|-0.19885|-0.21885|-0.23385|-0.21885|-0.22885|-0.20385|-0.22385|-0.23885|-0.23385|-0.23385|-0.23385|-0.22385|-0.22885|-0.23885|-0.24385|-0.24885|-0.22885|-0.22885|-0.24385|-0.23885|-0.23385|-0.20385|-0.17385|-0.16885|-0.16885|-0.17885|-0.16885|-0.13385|-0.10385|-0.088853|-0.068853|-0.068853|-0.048853|-0.018853|0.0011474|0.026147|0.031147|0.021147|0.041147|0.056147|0.076147|0.091147|0.086147|0.091147|0.096147|0.10615|0.11615|0.12615|0.11115|0.10115|0.10115|0.10115|0.11615|0.096147|0.10115|0.091147|0.086147|0.096147|0.12115|0.12115|0.12115|0.11115|0.10615|0.11615|0.13615|0.16615|0.18615|0.22115|0.27115|0.32615|0.39615|0.46615|0.56115|0.67115|0.80615|0.94615|1.0911|1.2461|1.3511|1.4461|1.5261|1.6061|1.6711|1.6761|1.6111|1.4711|1.2411|0.96115|0.64615|0.31615|-0.013853|-0.30385|-0.58385|-0.78885|-0.92885|-1.0639|-1.1539|-1.2539|-1.3089|-1.3439|-1.3739|-1.4139|-1.4589|-1.4939|-1.5189|-1.5089|-1.4989|-1.5039|-1.4989|-1.5089|-1.4839|-1.4089|-1.2989|-1.1489|-1.0239|-0.92385|-0.82885|-0.73885|-0.67385|-0.62885|-0.57385|-0.52385|-0.47885|-0.42885|-0.38885|-0.38885|-0.38885|-0.38385|-0.33885|-0.27385|-0.20885|-0.16385|-0.12385|-0.10385|-0.073853|-0.033853|0.011147|0.031147|0.076147|0.10115|0.13115|0.16615|0.20615|0.21615|0.23115|0.23115|0.25115|0.27115|0.28615|0.31615|0.33115|0.33115|0.35615|0.38615|0.44115|0.48115|0.48115|0.50615|0.51115|0.53615|0.56115|0.58115|0.60615|0.62115|0.64115|0.67615|0.70115|0.72115|0.73615|0.75615|0.78115|0.82115|0.85115|0.87615|0.88115|0.89115|0.91115|0.93615|0.98115|1.0061|1.0111|1.0211|1.0411|1.0861|1.1211|1.1311|1.1511|1.1711|1.1761|1.1911|1.2261|1.2361|1.2211|1.2411|1.2361|1.2561|1.2561|1.2561|1.2461|1.2261|1.2111|1.2011|1.2161|1.2011|1.1561|1.1211|1.0861|1.0911|1.0711|1.0661|1.0411|1.0211|0.98615|0.94615|0.94115|0.90115|0.85115|0.80115|0.77115|0.74115|0.72115|0.69615|0.64115|0.59115|0.55115|0.52115|0.51615|0.50115|0.47115|0.41615|0.38615|0.36615|0.36615|0.33615|0.30115|0.27615|0.26115|0.25115|0.22115|0.23115|0.20615|0.18615|0.16615|0.17115|0.19115|0.19115|0.17115|0.14615|0.10615|0.12115|0.13115|0.13615|0.11615|0.11115|0.10115|0.10615|0.10115|0.11115|0.10615|0.086147|0.086147|0.086147|0.096147|0.096147|0.076147|0.056147|0.051147|0.061147|0.061147|0.081147|0.051147|0.061147|0.036147|0.036147|0.051147|0.056147|0.056147|0.031147|0.021147|0.041147|0.056147|0.041147|0.036147|0.016147|0.016147|0.031147|
-0.19885|-0.19385|-0.20885|-0.21385|-0.23385|-0.20885|-0.20885|-0.21385|-0.21385|-0.21885|-0.21885|-0.22385|-0.20385|-0.21885|-0.20885|-0.21885|-0.22385|-0.18885|-0.16385|-0.14385|-0.14885|-0.15885|-0.16885|-0.11385|-0.083853|-0.058853|-0.043853|-0.033853|-0.028853|-0.0088526|0.011147|0.026147|0.026147|0.041147|0.056147|0.076147|0.10115|0.10615|0.091147|0.10115|0.086147|0.10615|0.11115|0.12615|0.11615|0.11115|0.096147|0.10615|0.12115|0.12115|0.10615|0.086147|0.081147|0.091147|0.10615|0.11115|0.11115|0.11615|0.086147|0.10115|0.10615|0.11115|0.096147|0.091147|0.086147|0.091147|0.091147|0.081147|0.081147|0.061147|0.066147|0.076147|0.076147|0.061147|0.031147|0.011147|-0.023853|-0.023853|-0.028853|-0.033853|-0.028853|0.0011474|0.026147|0.10615|0.19115|0.29615|0.41615|0.54115|0.71115|0.89615|1.0761|1.2661|1.4161|1.4861|1.4911|1.4661|1.4211|1.3811|1.3311|1.2711|1.2161|1.1561|1.0911|0.96615|0.80115|0.63115|0.46615|0.32615|0.19615|0.096147|0.0061474|-0.058853|-0.083853|-0.083853|-0.068853|-0.043853|-0.018853|-0.023853|-0.023853|-0.043853|-0.058853|-0.053853|-0.068853|-0.088853|-0.088853|-0.073853|-0.068853|-0.068853|-0.088853|-0.10385|-0.10385|-0.10885|-0.088853|-0.073853|-0.078853|-0.078853|-0.10885|-0.10885|-0.10385|-0.078853|-0.078853|-0.068853|-0.073853|-0.058853|-0.043853|-0.023853|-0.018853|-0.038853|-0.058853|-0.033853|-0.0088526|-0.018853|-0.013853|-0.023853|-0.023853|-0.0088526|0.011147|0.016147|0.0011474|-0.013853|-0.013853|0.0011474|0.016147|0.036147|0.026147|0.0011474|0.0011474|0.011147|0.026147|0.056147|0.061147|0.051147|0.046147|0.071147|0.10615|0.10115|0.11115|0.13115|0.14115|0.15115|0.19115|0.21115|0.20115|0.21115|0.21615|0.24615|0.27615|0.30615|0.30615|0.30115|0.32115|0.35115|0.38115|0.40115|0.39115|0.39115|0.39115|0.37615|0.40615|0.41115|0.41615|0.39115|0.35615|0.35615|0.35615|0.36115|0.34615|0.30615|0.29115|0.28615|0.27615|0.25115|0.24115|0.21115|0.18615|0.17615|0.18115|0.15615|0.15615|0.14615|0.12615|0.14115|0.15615|0.13115|0.12615|0.10615|0.091147|0.096147|0.11615|0.13115|0.10615|0.071147|0.086147|0.081147|0.086147|0.091147|0.096147|0.081147|0.066147|0.086147|0.086147|0.081147|0.061147|0.066147|0.056147|0.056147|0.066147|0.081147|0.076147|0.071147|0.071147|0.071147|0.071147|0.066147|0.066147|0.051147|0.046147|0.051147|0.066147|0.071147|0.061147|0.036147|0.046147|0.051147|0.051147|0.061147|0.056147|0.036147|0.031147|0.0061474|0.046147|0.056147|0.031147|0.021147|0.026147|0.031147|0.036147|0.031147|0.031147|0.016147|0.0011474|0.0061474|0.021147|0.041147|0.021147|0.0061474|0.0011474|0.016147|0.036147|0.031147|0.021147|0.0061474|-0.013853|-0.0088526|0.016147|0.041147|0.026147|-0.013853|-0.013853|0.0011474|
-0.088853|-0.078853|-0.083853|-0.10885|-0.12885|-0.12885|-0.11885|-0.10885|-0.11385|-0.12885|-0.13885|-0.13385|-0.13385|-0.12385|-0.12885|-0.15385|-0.17385|-0.17885|-0.18885|-0.18885|-0.17385|-0.19885|-0.20885|-0.20385|-0.20385|-0.19885|-0.20385|-0.23385|-0.24385|-0.23885|-0.23385|-0.23385|-0.24385|-0.26385|-0.26885|-0.27385|-0.24885|-0.24385|-0.25385|-0.26385|-0.27385|-0.25885|-0.23885|-0.23385|-0.22885|-0.23385|-0.21885|-0.21885|-0.18885|-0.17385|-0.16885|-0.16385|-0.13885|-0.10385|-0.063853|-0.053853|-0.038853|-0.033853|-0.038853|0.0011474|0.031147|0.061147|0.066147|0.061147|0.061147|0.081147|0.096147|0.11115|0.11615|0.10615|0.11115|0.11615|0.12615|0.12615|0.14615|0.13615|0.11115|0.091147|0.11115|0.14115|0.13115|0.16115|0.20115|0.25615|0.34615|0.42115|0.52615|0.65115|0.77115|0.91615|1.0411|1.1461|1.2311|1.3111|1.3861|1.4311|1.5011|1.5711|1.5761|1.4961|1.3111|1.0161|0.66615|0.34615|0.026147|-0.26385|-0.52385|-0.71885|-0.83385|-0.90385|-0.97385|-1.0589|-1.1039|-1.1439|-1.1739|-1.2339|-1.2939|-1.3489|-1.3589|-1.3639|-1.3889|-1.4339|-1.4339|-1.4389|-1.3939|-1.3089|-1.1739|-1.0339|-0.89885|-0.79385|-0.70885|-0.60885|-0.52385|-0.45885|-0.39885|-0.38885|-0.38385|-0.37385|-0.34885|-0.30885|-0.27385|-0.24885|-0.21885|-0.14885|-0.098853|-0.068853|-0.038853|0.0061474|0.046147|0.091147|0.13115|0.15115|0.16115|0.16615|0.19615|0.24115|0.26115|0.27615|0.28115|0.29615|0.30615|0.36115|0.42115|0.45615|0.46615|0.46115|0.46615|0.48115|0.52615|0.57615|0.58115|0.60615|0.61115|0.64615|0.68115|0.71615|0.74115|0.74115|0.77615|0.81115|0.84115|0.87615|0.86615|0.89115|0.91115|0.93615|0.99115|1.0111|1.0261|1.0261|1.0461|1.0911|1.1211|1.1461|1.1511|1.1311|1.1411|1.1611|1.1711|1.2061|1.1961|1.1861|1.1861|1.1911|1.1911|1.1961|1.1811|1.1611|1.1461|1.1361|1.1361|1.1161|1.0661|1.0411|1.0061|0.99615|0.97615|0.93615|0.90115|0.83115|0.80615|0.77115|0.76115|0.71115|0.68115|0.63615|0.57115|0.56615|0.54615|0.51615|0.47115|0.42615|0.38615|0.37615|0.34115|0.31615|0.29115|0.25115|0.23115|0.20615|0.20115|0.18615|0.16615|0.14115|0.13615|0.13615|0.12115|0.12115|0.11115|0.086147|0.081147|0.081147|0.086147|0.081147|0.081147|0.056147|0.056147|0.061147|0.046147|0.066147|0.046147|0.026147|-0.013853|0.021147|0.041147|0.046147|0.041147|0.021147|0.011147|0.011147|0.021147|0.021147|0.011147|0.0061474|0.0061474|0.0011474|0.0011474|0.0061474|0.0011474|-0.013853|-0.013853|-0.013853|-0.0038526|-0.0088526|-0.018853|-0.038853|-0.038853|-0.028853|-0.013853|0.0061474|-0.0088526|-0.033853|-0.053853|-0.048853|-0.043853|-0.023853|-0.038853|-0.058853|-0.063853|-0.068853|
-0.36385|-0.35885|-0.34885|-0.34385|-0.34885|-0.37385|-0.36885|-0.34385|-0.32385|-0.31385|-0.31385|-0.30885|-0.27885|-0.24885|-0.22885|-0.21885|-0.22885|-0.20885|-0.18385|-0.14385|-0.11385|-0.093853|-0.088853|-0.088853|-0.068853|-0.028853|-0.0038526|0.016147|0.0011474|0.0011474|0.0061474|0.031147|0.051147|0.056147|0.041147|0.046147|0.056147|0.056147|0.056147|0.066147|0.051147|0.036147|0.041147|0.046147|0.061147|0.046147|0.051147|0.031147|0.011147|0.011147|0.031147|0.056147|0.041147|0.031147|0.041147|0.026147|0.031147|0.021147|0.011147|0.016147|0.021147|0.036147|0.026147|0.036147|0.011147|-0.0038526|0.0011474|0.021147|0.031147|0.021147|-0.0038526|-0.0088526|-0.038853|-0.018853|-0.013853|-0.038853|-0.068853|-0.088853|-0.11885|-0.13385|-0.12885|-0.10385|-0.098853|-0.023853|0.061147|0.16115|0.28115|0.43615|0.58115|0.74115|0.90615|1.0761|1.2361|1.3511|1.4211|1.3861|1.3161|1.2511|1.2161|1.1711|1.0961|1.0061|0.87615|0.73615|0.60615|0.44115|0.27615|0.081147|-0.083853|-0.19885|-0.28385|-0.36885|-0.44885|-0.48385|-0.46885|-0.45385|-0.40385|-0.40385|-0.36385|-0.32885|-0.28385|-0.21385|-0.18385|-0.16385|-0.14885|-0.16385|-0.16385|-0.15385|-0.14885|-0.13885|-0.15885|-0.14385|-0.14385|-0.11885|-0.10885|-0.093853|-0.088853|-0.093853|-0.093853|-0.073853|-0.068853|-0.078853|-0.10385|-0.10885|-0.098853|-0.073853|-0.043853|-0.033853|-0.043853|-0.043853|-0.043853|-0.028853|-0.0088526|-0.013853|-0.0038526|0.0011474|-0.0038526|0.011147|0.011147|0.0011474|-0.0088526|-0.018853|0.0011474|0.026147|0.046147|0.041147|0.036147|0.021147|0.026147|0.051147|0.066147|0.061147|0.061147|0.056147|0.071147|0.086147|0.10615|0.12615|0.13115|0.12615|0.14115|0.18115|0.20115|0.22115|0.22115|0.22115|0.23615|0.27115|0.31615|0.34115|0.34115|0.34615|0.35115|0.39115|0.43115|0.46115|0.46115|0.47115|0.49115|0.50115|0.52615|0.51115|0.51615|0.51115|0.51115|0.52115|0.54615|0.52615|0.52115|0.49615|0.48615|0.48615|0.48115|0.46615|0.41615|0.36615|0.35615|0.32615|0.32615|0.29615|0.25615|0.25115|0.24115|0.24615|0.23115|0.22115|0.18615|0.17115|0.15115|0.15615|0.18115|0.14615|0.10115|0.081147|0.086147|0.10115|0.12115|0.11615|0.096147|0.086147|0.081147|0.081147|0.091147|0.066147|0.081147|0.061147|0.061147|0.066147|0.081147|0.066147|0.041147|0.036147|0.031147|0.041147|0.061147|0.061147|0.051147|0.021147|0.011147|0.026147|0.056147|0.051147|0.026147|0.026147|0.011147|0.016147|0.026147|-0.0038526|-0.033853|-0.088853|-0.12885|-0.12885|-0.14385|-0.16885|-0.18885|-0.21385|-0.17385|-0.098853|-0.0038526|0.11115|0.22115|0.32615|0.43615|0.51615|0.59615|0.60115|0.57115|0.54115|0.45615|0.32115|0.16115|-0.028853|-0.21885|-0.40885|-0.62385|-0.84885|-1.0489|-1.2239|-1.2939|-1.2839|
0.34115|0.34615|0.35115|0.39115|0.43115|0.46115|0.46115|0.47115|0.49115|0.50115|0.52615|0.51115|0.51615|0.51115|0.51115|0.52115|0.54615|0.52615|0.52115|0.49615|0.48615|0.48615|0.48115|0.46615|0.41615|0.36615|0.35615|0.32615|0.32615|0.29615|0.25615|0.25115|0.24115|0.24615|0.23115|0.22115|0.18615|0.17115|0.15115|0.15615|0.18115|0.14615|0.10115|0.081147|0.086147|0.10115|0.12115|0.11615|0.096147|0.086147|0.081147|0.081147|0.091147|0.066147|0.081147|0.061147|0.061147|0.066147|0.081147|0.066147|0.041147|0.036147|0.031147|0.041147|0.061147|0.061147|0.051147|0.021147|0.011147|0.026147|0.056147|0.051147|0.026147|0.026147|0.011147|0.016147|0.026147|-0.0038526|-0.033853|-0.088853|-0.12885|-0.12885|-0.14385|-0.16885|-0.18885|-0.21385|-0.17385|-0.098853|-0.0038526|0.11115|0.22115|0.32615|0.43615|0.51615|0.59615|0.60115|0.57115|0.54115|0.45615|0.32115|0.16115|-0.028853|-0.21885|-0.40885|-0.62385|-0.84885|-1.0489|-1.2239|-1.2939|-1.2839|-1.2389|-1.2039|-1.2289|-1.2689|-1.2939|-1.3289|-1.3389|-1.3539|-1.3689|-1.3739|-1.3739|-1.3739|-1.3189|-1.2489|-1.1739|-1.1139|-1.0739|-1.0439|-0.96885|-0.86885|-0.76385|-0.64885|-0.54385|-0.47385|-0.41385|-0.32885|-0.23385|-0.17385|-0.14885|-0.088853|-0.043853|0.0061474|0.046147|0.066147|0.061147|0.066147|0.081147|0.10615|0.14615|0.17115|0.17615|0.18615|0.20115|0.22615|0.24615|0.26615|0.28615|0.29115|0.31115|0.34615|0.36115|0.37615|0.36615|0.36115|0.37615|0.40115|0.44115|0.46615|0.46615|0.46115|0.46615|0.51115|0.51615|0.54115|0.55615|0.56615|0.59615|0.62615|0.64615|0.67115|0.66615|0.67615|0.71615|0.75615|0.79115|0.81115|0.81115|0.81615|0.85615|0.87615|0.92615|0.96615|0.98615|0.98115|1.0161|1.0561|1.1011|1.1211|1.1561|1.1911|1.2011|1.2511|1.2961|1.3111|1.3161|1.3161|1.3261|1.3361|1.3661|1.3761|1.3761|1.3711|1.3711|1.3761|1.3761|1.3561|1.3311|1.3011|1.2811|1.2611|1.2461|1.2011|1.1611|1.1061|1.0661|1.0461|1.0311|0.98115|0.94615|0.89615|0.85615|0.82615|0.79615|0.74615|0.66615|0.59615|0.55115|0.51615|0.49115|0.43615|0.39115|0.34615|0.31115|0.28615|0.29115|0.24615|0.20115|0.15615|0.15615|0.16115|0.16615|0.13615|0.11615|0.10115|0.10115|0.096147|0.11115|0.086147|0.071147|0.031147|0.016147|0.016147|0.026147|0.046147|0.016147|0.0061474|-0.0088526|-0.0038526|0.011147|0.0011474|-0.0038526|-0.038853|-0.028853|-0.0088526|0.0011474|0.0061474|0.0061474|-0.018853|-0.028853|-0.033853|-0.018853|-0.048853|-0.043853|-0.068853|-0.058853|-0.043853|-0.038853|-0.043853|-0.053853|-0.068853|-0.088853|-0.083853|-0.068853|-0.078853|-0.073853|-0.083853|-0.098853|-0.083853|-0.058853|-0.083853|
-0.43885|-0.41385|-0.35885|-0.35885|-0.37885|-0.40385|-0.42885|-0.42385|-0.40385|-0.36885|-0.33385|-0.30385|-0.25885|-0.22885|-0.20385|-0.21385|-0.22385|-0.27385|-0.30885|-0.28885|-0.27385|-0.23385|-0.21885|-0.20885|-0.18885|-0.16385|-0.15385|-0.15885|-0.18385|-0.19385|-0.18885|-0.18385|-0.15385|-0.14385|-0.12385|-0.098853|-0.083853|-0.088853|-0.10885|-0.12385|-0.12885|-0.16385|-0.17885|-0.18885|-0.18885|-0.19885|-0.18385|-0.18885|-0.15885|-0.12385|-0.10385|-0.11885|-0.16885|-0.22385|-0.24885|-0.21385|-0.18885|-0.20385|-0.21385|-0.20885|-0.17385|-0.14885|-0.12885|-0.17885|-0.28385|-0.36385|-0.40885|-0.41885|-0.37885|-0.34385|-0.34385|-0.33885|-0.28885|-0.23885|-0.22385|-0.26885|-0.34385|-0.35885|-0.30885|-0.23385|-0.20885|-0.25385|-0.29885|-0.29885|-0.26885|-0.23385|-0.20885|-0.19385|-0.21385|-0.24385|-0.30885|-0.37885|-0.44385|-0.48885|-0.50385|-0.50885|-0.48385|-0.46385|-0.43385|-0.42885|-0.43385|-0.40885|-0.35885|-0.27885|-0.22385|-0.18385|-0.14885|-0.13885|-0.11885|-0.093853|-0.063853|-0.078853|-0.093853|-0.15385|-0.20385|-0.19385|-0.14885|-0.083853|-0.033853|-0.0088526|-0.033853|-0.058853|-0.088853|-0.098853|-0.063853|-0.033853|-0.0038526|0.0011474|-0.013853|-0.033853|-0.058853|-0.048853|-0.033853|0.016147|0.066147|0.096147|0.091147|0.076147|0.086147|0.11615|0.12615|0.15115|0.17615|0.21115|0.25115|0.29615|0.32115|0.31115|0.24615|0.19115|0.19115|0.23615|0.30115|0.34615|0.42615|0.52115|0.58615|0.59115|0.56615|0.55615|0.55115|0.56615|0.60115|0.62615|0.63615|0.64115|0.65615|0.67615|0.69615|0.69615|0.73115|0.74615|0.72115|0.71615|0.70615|0.73115|0.73615|0.73115|0.66615|0.57115|0.52115|0.53115|0.57615|0.56115|0.50115|0.39115|0.28615|0.25115|0.24115|0.23115|0.20615|0.17615|0.14615|0.13115|0.14615|0.17115|0.18615|0.14115|0.066147|-0.0038526|-0.073853|-0.12385|-0.12885|-0.083853|-0.053853|-0.038853|-0.053853|-0.098853|-0.13385|-0.17385|-0.15385|-0.10885|-0.073853|-0.053853|-0.058853|-0.063853|-0.093853|-0.15885|-0.21885|-0.20885|-0.20885|-0.19385|-0.18885|-0.16385|-0.11885|-0.12885|-0.12885|-0.17385|-0.21385|-0.20385|-0.20885|-0.17385|-0.13385|-0.12885|-0.11385|-0.11385|-0.15885|-0.21385|-0.23885|-0.25885|-0.24885|-0.20385|-0.13885|-0.093853|-0.088853|-0.12385|-0.17385|-0.20885|-0.23885|-0.25385|-0.24385|-0.22385|-0.19885|-0.17885|-0.14885|-0.17385|-0.21385|-0.23385|-0.25385|-0.26385|-0.26885|-0.26885|-0.28385|-0.28385|-0.25385|-0.24385|-0.21885|-0.21885|-0.23885|-0.25885|-0.26885|-0.25885|-0.20385|-0.17885|-0.17885|-0.20385|-0.23885|-0.24385|-0.24885|-0.27385|-0.27885|-0.25885|-0.22385|-0.20385|-0.17385|-0.19385|-0.22385|-0.26385|-0.28385|-0.24885|-0.20885|-0.16385|-0.15885|-0.17885|-0.21885|-0.22385|-0.19385|-0.19885|-0.21885|-0.26385|
-0.21885|-0.22385|-0.24885|-0.24885|-0.24385|-0.24885|-0.23885|-0.25885|-0.27385|-0.31385|-0.30885|-0.29885|-0.28885|-0.29885|-0.31885|-0.32885|-0.32885|-0.32885|-0.33885|-0.35885|-0.37385|-0.37885|-0.36885|-0.37885|-0.38385|-0.40885|-0.43885|-0.44885|-0.42885|-0.43385|-0.43885|-0.43885|-0.46385|-0.44385|-0.42885|-0.40385|-0.39385|-0.40385|-0.41385|-0.39385|-0.35885|-0.32385|-0.29385|-0.27385|-0.27385|-0.24885|-0.22885|-0.17385|-0.13885|-0.13385|-0.11385|-0.098853|-0.088853|-0.053853|-0.013853|-0.0038526|-0.0038526|0.0011474|0.0061474|0.021147|0.031147|0.036147|0.041147|0.041147|0.036147|0.056147|0.046147|0.016147|0.016147|0.026147|0.046147|0.061147|0.051147|0.051147|0.016147|0.016147|0.036147|0.061147|0.081147|0.086147|0.10115|0.12115|0.18115|0.28115|0.36615|0.48115|0.58615|0.69615|0.82115|0.93115|1.0611|1.1461|1.2411|1.3011|1.3561|1.3811|1.4111|1.4111|1.3761|1.2861|1.1111|0.85115|0.54615|0.20615|-0.098853|-0.38885|-0.63385|-0.82885|-0.97885|-1.1139|-1.1989|-1.2989|-1.3589|-1.4139|-1.4539|-1.5189|-1.5789|-1.6339|-1.6689|-1.6839|-1.7039|-1.7389|-1.7489|-1.7339|-1.6989|-1.5839|-1.4439|-1.3039|-1.1839|-1.1039|-1.0089|-0.92385|-0.84885|-0.77885|-0.71885|-0.68885|-0.64385|-0.57885|-0.52885|-0.48885|-0.44885|-0.39385|-0.32885|-0.24385|-0.17885|-0.14385|-0.10885|-0.053853|-0.0088526|0.021147|0.051147|0.066147|0.10115|0.15115|0.20615|0.23115|0.26115|0.27615|0.27115|0.29615|0.33115|0.38115|0.40115|0.43115|0.45115|0.47615|0.51115|0.57115|0.58115|0.59615|0.59615|0.61115|0.65115|0.70115|0.74115|0.76615|0.78115|0.79615|0.82615|0.87615|0.90115|0.93615|0.95615|0.97615|1.0011|1.0361|1.0461|1.0561|1.0711|1.0861|1.1261|1.1511|1.1961|1.1961|1.1961|1.2111|1.2411|1.2561|1.2811|1.2811|1.2711|1.2761|1.2761|1.2911|1.3111|1.2961|1.2611|1.2361|1.2311|1.2111|1.1761|1.1461|1.1011|1.0861|1.0661|1.0511|1.0261|0.98615|0.95115|0.91115|0.89115|0.86115|0.83115|0.79115|0.74615|0.71115|0.69615|0.68115|0.66115|0.62615|0.59115|0.54615|0.50615|0.47115|0.44115|0.39615|0.36115|0.32615|0.31615|0.30615|0.28615|0.25615|0.23115|0.19615|0.19615|0.19615|0.19115|0.15615|0.12615|0.086147|0.10115|0.096147|0.10115|0.091147|0.076147|0.056147|0.046147|0.051147|0.056147|0.041147|0.021147|0.021147|0.016147|0.026147|0.036147|0.011147|-0.0038526|-0.013853|-0.0038526|0.016147|0.021147|0.011147|-0.028853|-0.048853|-0.043853|-0.018853|-0.013853|-0.018853|-0.033853|-0.043853|-0.028853|-0.043853|-0.048853|-0.053853|-0.058853|-0.058853|-0.053853|-0.028853|-0.018853|-0.028853|-0.058853|-0.068853|-0.078853|-0.063853|-0.053853|-0.058853|-0.078853|-0.083853|-0.078853|-0.083853|
-0.23885|-0.25385|-0.26385|-0.27885|-0.27385|-0.25885|-0.25885|-0.26885|-0.28885|-0.30885|-0.30885|-0.29885|-0.28385|-0.28885|-0.29885|-0.31385|-0.31385|-0.31885|-0.32385|-0.32885|-0.34885|-0.35385|-0.36385|-0.36385|-0.38385|-0.38885|-0.42385|-0.41385|-0.41385|-0.41385|-0.41885|-0.42885|-0.45385|-0.46885|-0.45885|-0.44385|-0.43885|-0.45885|-0.47385|-0.48385|-0.48385|-0.46885|-0.44885|-0.44385|-0.45385|-0.44885|-0.42385|-0.39385|-0.36385|-0.34885|-0.35385|-0.33885|-0.31385|-0.29385|-0.25385|-0.21385|-0.19385|-0.17885|-0.15385|-0.12385|-0.088853|-0.078853|-0.078853|-0.073853|-0.058853|-0.038853|-0.023853|-0.028853|-0.038853|-0.043853|-0.018853|-0.0088526|0.011147|0.0011474|-0.013853|-0.023853|-0.013853|0.021147|0.031147|0.026147|0.016147|0.036147|0.091147|0.16615|0.27615|0.34115|0.43615|0.53115|0.62115|0.73115|0.81115|0.90115|1.0061|1.1061|1.2111|1.2961|1.3461|1.3761|1.3211|1.1711|0.88115|0.51615|0.17615|-0.14385|-0.41885|-0.65885|-0.83885|-0.98385|-1.1039|-1.2139|-1.2939|-1.3589|-1.4239|-1.4789|-1.5489|-1.6089|-1.6789|-1.7239|-1.7489|-1.7389|-1.7539|-1.7739|-1.7989|-1.7989|-1.7839|-1.7139|-1.6039|-1.5039|-1.3689|-1.2589|-1.1389|-1.0139|-0.90885|-0.83385|-0.77885|-0.72385|-0.65385|-0.59885|-0.54385|-0.52385|-0.49885|-0.44385|-0.37385|-0.29885|-0.23385|-0.19385|-0.16885|-0.14385|-0.10885|-0.068853|-0.043853|-0.0088526|0.0061474|0.066147|0.10115|0.14615|0.18615|0.20615|0.20615|0.22615|0.25615|0.29115|0.32615|0.34115|0.35615|0.37615|0.42615|0.46115|0.50115|0.52115|0.53615|0.53615|0.55615|0.57115|0.61115|0.65615|0.67615|0.69615|0.72615|0.76615|0.81115|0.81115|0.83115|0.86115|0.90615|0.92115|0.96615|0.97615|1.0011|1.0311|1.0861|1.1161|1.1361|1.1361|1.1461|1.1311|1.1661|1.1961|1.2361|1.2411|1.2361|1.2311|1.2311|1.2511|1.2561|1.2661|1.2511|1.2311|1.2311|1.2311|1.2261|1.2011|1.1811|1.1661|1.1411|1.1211|1.0961|1.0461|0.99615|0.95115|0.91615|0.88615|0.86115|0.80615|0.76615|0.71615|0.69115|0.66115|0.61615|0.56615|0.51115|0.47615|0.45115|0.42115|0.41615|0.38115|0.32615|0.29615|0.27115|0.23615|0.20115|0.17615|0.14615|0.12615|0.11615|0.10615|0.091147|0.061147|0.046147|0.031147|0.031147|0.051147|0.036147|0.011147|-0.013853|-0.023853|-0.018853|0.0061474|-0.0038526|-0.018853|-0.038853|-0.058853|-0.058853|-0.043853|-0.028853|-0.028853|-0.043853|-0.053853|-0.068853|-0.063853|-0.053853|-0.068853|-0.058853|-0.068853|-0.073853|-0.068853|-0.063853|-0.078853|-0.093853|-0.10885|-0.093853|-0.073853|-0.088853|-0.10385|-0.12385|-0.12885|-0.10885|-0.093853|-0.088853|-0.11385|-0.12885|-0.13385|-0.12885|-0.10885|-0.10385|-0.12385|-0.12885|-0.13885|-0.12385|-0.10885|
